t_0,t_1,t_2,t_3,t_4,t_5,t_6,t_7,t_8,t_9,t_10,t_11,t_12,t_13,t_14,t_15,t_16,t_17,t_18,t_19,t_20,t_21,t_22,t_23,t_24,t_25,t_26,t_27,t_28,t_29,t_30,t_31,t_32,t_33,t_34,t_35,t_36,t_37,t_38,t_39,t_40,t_41,t_42,t_43,t_44,t_45,t_46,t_47,t_48,t_49,t_50,t_51,t_52,t_53,t_54,t_55,t_56,t_57,t_58,t_59,t_60,t_61,t_62,t_63,t_64,t_65,t_66,t_67,t_68,t_69,t_70,t_71,t_72,t_73,t_74,t_75,t_76,t_77,t_78,t_79,t_80,t_81,t_82,t_83,t_84,t_85,t_86,t_87,t_88,t_89,t_90,t_91,t_92,t_93,t_94,t_95,t_96,t_97,t_98,t_99,t_100,t_101,t_102,t_103,t_104,t_105,t_106,t_107,t_108,t_109,t_110,t_111,t_112,t_113,t_114,t_115,t_116,t_117,t_118,t_119,t_120,t_121,t_122,t_123,t_124,t_125,t_126,t_127,t_128,t_129,t_130,t_131,t_132,t_133,t_134,t_135,t_136,t_137,t_138,t_139,label
0.913743885677674,0.04895032479460999,0.12016353529709137,-1.0657718591524392,0.2749674221394978,1.2641863423890447,-0.4303015572031521,0.40663858537274583,0.06781096024574645,-0.5333228188760288,0.5149479333002788,1.8173530939243778,1.3751457278586503,-0.841401519265332,0.11884804214105765,0.7313149783917847,0.08302697471658749,-1.2849529791664476,-0.7566114033213784,0.6274258037941902,1.9285499290308836,-0.6472273968315018,-0.9525358839562009,1.1283085291515822,0.23442883444809848,-0.3889152157968746,-0.19317614719697143,-0.14163834716897106,0.7512249529783305,0.22766328224210583,-1.5303653469692025,-0.12719871515688053,1.8358106151699904,1.1093483010100589,1.2541037722597934,-0.8353849012760958,0.3613747367354058,0.949450350078469,0.07420643566766924,1.1831310641523973,-0.8565117374719562,0.2131857153934703,-0.5934724822157684,1.4768440976993724,-0.05505890825822429,-0.2105749900447492,-1.1362901335644457,0.8282723007381833,0.4418999510321678,-0.018216403764369723,0.6031455111149968,1.0714544542766942,0.20195062453430304,0.44453467756567483,0.5416808662695312,-1.7611694890298468,0.4714259520678257,-1.6372046223203878,0.0074909480996289985,0.563372008170324,-1.8265614062362783,0.051732838743525404,-0.353650475194972,-0.24861632063017536,0.7767227158430293,1.9003469941298599,0.7352548202711728,0.02520512680590122,-1.3464412475914103,1.3676754321358253,-0.16325385589615443,-1.6862528634378267,-1.155982165794335,-1.2692269609546927,-1.1141157829242794,1.013983644802748,0.19828762290043148,0.54092736361186,-2.801130300830484,0.7676454086158361,0.6297491620906238,-1.7913062021172674,-1.2449171408329867,1.1380201938331596,-0.5962043149117847,1.00941274350802,0.010137683612180091,-0.512851924612955,-0.13991345348992468,-1.9912459262258135,0.3807738741231952,-1.1992991707769065,-1.8296931398712357,-1.4815619492243361,-0.908882125049506,0.5851225015730659,-0.799035712164386,0.7524144901259128,0.8852607299063974,0.9647004452914354,1.8375639777795019,0.47106816621365,0.5814498072467563,-0.6430822453170958,-2.3125944789278914,0.3230694567035218,-1.3681625629142686,-1.3981631537796975,-1.1646068777460807,0.6484150203094692,0.9662754813151022,0.1609245459664011,-1.1082324616269432,-0.2831114486657413,1.4106745517040076,-0.26527884372414556,-0.5018649596220546,1.3523664554927906,2.2807604848876957,-0.32834422159470544,-1.629203385977646,0.07742028788665639,-0.3373353972664735,1.4800689825501845,-1.2814404830171824,-0.9179270910144154,-0.3701048358622688,0.693475733633136,-1.0582442937555312,1.072779133628911,-0.491264555118875,-1.513925337529648,-0.8465575307824674,-1.3669247003348894,-1.2917123244074746,1.9268267975073052,0.13819128740644562,1.0620795979110693,-0.41127835909843524,0.6092160013279135,0
-0.8057900677453493,1.7120165803248195,-0.253099389422925,-0.8452106347891221,-1.2761976689950272,-1.145938100351683,-1.2737113132273699,1.726352636704756,-0.2172785795867971,-0.29119442777449345,3.292272091750938,1.5255792666475,-1.252989928460824,1.34628431965443,-0.3567171397861483,-0.1299025504722103,-0.592592225362132,-0.15082899654182158,-0.6032671684504182,-0.33930089741453706,-0.41895557811383977,0.4692548813467638,0.5027204154917504,0.13584482098709086,1.4816405456342732,1.0674636543347573,1.317847370304855,-0.7437492712625927,-1.157112541122641,0.2791760800303485,0.41550435005351266,-0.9983171324982442,0.33183064891633296,-1.7204856609461752,-0.341470754738587,-1.3015358052445494,0.4159844015586817,0.7908607227316501,-2.08443345546674,-3.100355224348096,1.5841011357358428,-1.1721876038136458,-0.5495332632044252,-1.0517368250090924,1.163423534744708,0.941715607014444,-0.34364865365928676,0.67999874776861,0.2803386197242972,0.30514905954150523,0.6289880419924883,-0.008565755910484668,-0.517088450296146,0.8911402683752919,0.16022403615046646,-0.01259607764101106,0.11114602078044047,-0.6218042019936455,-1.3190539384949265,-0.6331756184597387,0.2219956130657272,-0.08700926689612759,-1.0921424784559444,-1.410433883121674,-1.2171789334886878,-0.17473025360735173,1.59735092116497,-1.2061892626357573,0.7131076604384877,-1.396850821833211,0.7679470786067001,-0.6837764430686465,-0.08934552055541505,0.703213563546776,0.08589613424849234,0.24221219658185164,0.0991536601495758,1.850231603937752,-1.2775981332868007,-0.1417905402543208,0.009862807609849197,-0.8890962436965528,0.7986997956831359,-0.43599662524286226,0.8136225136106173,0.08466494186093056,-0.3653136805672703,1.7225404141038534,-1.832161863455523,0.6197292637663276,1.3994039179272797,-1.4906203733396177,-0.028059141475967914,0.4738773826592221,-0.8658108326264132,0.5639104059791857,1.4248689664628653,0.7337481558285334,1.8793025148529574,-1.0566660747162835,-0.22678979969495133,-1.525190238500498,-0.47197854173370396,0.5116153655683531,0.2634619784005354,-0.5511743856948027,-0.12637067101117005,-1.9802129248826927,0.03811153321855125,1.5548562348021968,-1.5441668602580412,-0.025092461613823735,1.366770876564456,-1.0224772609473396,-0.19855364289180358,1.1653736949140425,2.5980129636229603,0.262357267078545,0.3458513136129345,-1.1716400792091788,0.36429409342498564,-0.3155803613914759,0.33785710164860744,0.48266340910855954,-0.2293046251054186,1.2968665441061382,0.547394590580184,-0.7227815430834069,-1.2314613363371978,1.4498565267544488,1.1134111071701414,0.27982167249765616,-1.2984555693643076,-0.2993111970144486,0.5218798897938883,-0.926216297921011,1.8837583388232908,-1.2050590644369659,-1.1779121845838278,0.2233536120810113,0
1.2605708781967193,-2.531875661276055,-0.8452626659592356,-2.73471849333686,1.3097054767107361,-0.8416722043522468,1.6641362774187543,-1.7115878167001073,-1.0679405889155769,-0.369391999598271,0.45466803869563444,0.05065733084529283,-0.6528494236818265,-2.4474820391174483,-0.28072230014791283,-0.20011283626280324,-0.49115261963357726,1.335675048814202,-0.2641077084343315,1.4459002081718935,0.5035825167410107,0.5515705868482554,0.8542732978473706,0.3638056062493595,-0.3937346286084301,0.48204269051778326,0.8675265294127547,0.5107126952913597,-1.4820373232234962,0.8097156452626457,0.7422548560341012,0.8450063585891757,-0.31514122862523813,-0.7419108762145812,-0.03934712858475115,0.939120784963843,-1.4466581385820803,0.03352007277550823,-1.9914178783769128,-1.4142528068449882,1.086926901559878,0.26508472356272317,-1.1219471519793802,0.640541812524519,-0.6147243460095394,0.41834108610444687,0.43833181583165304,0.670728409739768,0.9031813314421876,-0.19948828943485813,-0.22874783464183607,1.3435687083388792,-0.8772965283742941,0.5128006298197921,-0.6628480345343951,0.05097488528484675,1.7717926845904637,-1.2322875721184212,-1.4341939157766186,1.410565376162059,0.2411245506367479,-0.7043823313752898,-0.12805448201608552,-0.20016292296465787,-0.282902552139268,1.354380013079307,-0.9101131903589809,-0.2211964640307146,-1.0761856565968857,-0.2097866262108869,-0.6542886681403154,0.3146303610161582,-0.14506822610811101,0.5833448812614764,1.3426005325047117,-1.1739408122817798,0.14452150974975075,-1.584421523897371,0.05382823553307987,0.5507067396765176,-0.3281351941896725,0.3924817623575751,0.3180559740957737,0.5825717337484584,-1.202351045613574,1.0863443600582328,-0.32039959326585854,-1.6531724895908413,-0.9184563540889279,-1.2586019595043605,-0.5361687049523964,-0.8599675558939113,-1.5308159493278264,-1.672239822847738,-0.023627759072564408,1.4218097911351868,0.13461833039100352,-0.5949629878232897,-1.0597678734885874,-1.278524061730434,-0.2628054426166284,-0.1985420629245032,0.5516949984171162,-0.35694109615507524,1.3886313191935056,-1.2943206780703937,-1.1243680245966705,0.41037172891816004,-0.4891362454271105,-0.5595910199142967,-0.7823483024344877,-1.3854101645972257,-2.102753795110913,-0.6714661553187772,-1.1360245097525026,0.2958680767712239,-0.05554824896952335,-0.6480436678844751,-0.5120088845616111,1.0920391318684364,-0.8193910387907762,0.9387323383427209,1.3533228799299277,0.29169350439642044,-0.38165829905305365,-0.19784475594372958,0.7697396505992655,-0.3423887150004689,2.391186060689332,-0.7898696358045972,0.6986317317195592,0.9413967838501924,-1.641806015449207,0.20895926675900175,-0.30584338001244904,-0.3206844798325466,0.9993575435861731,-0.21790029844581935,1.437591783658039,-1.258202381605797,0
-1.1679651434106568,-0.30930393636841125,-0.6235437565771152,-0.8264293908387211,-2.2973752999647084,1.0403148482337907,0.3643683170259313,0.5139175406936142,-0.7738202266129208,0.5492305904325329,2.1751215258460532,0.5795257324410378,0.004577212513352974,0.10196670455816995,1.232667497981571,-1.1493852600769074,-0.11051042516968289,0.033341433103895445,0.37334490191725217,-0.7303495018699312,-1.99048897583513,0.05884864591790785,2.366192772108797,0.4271799948029833,-1.166089270685885,-0.4948872157366743,-0.26808452451394066,1.5796701704470837,-0.13153143099419354,1.0970049606527037,0.1983548567694884,0.08152710050360099,-1.003297598008165,0.7962221741769415,-0.5432928336084841,1.125917672371787,0.027991231285297364,-0.09368241230066592,-0.740645948551812,-0.46842295684660823,-0.4592090785637561,0.045400030666491925,1.5861611459069311,-1.4430340871736709,0.1316884863651123,1.7755322239045022,-1.1784692945066373,-0.41481820575716843,0.8594861537054743,-1.2072583064227296,1.5157645911503754,1.2576295909520472,0.2690184717652925,-2.9565538398886106,-0.48225646539588407,0.9912712079803776,-0.3669065425818852,0.009127791670706528,2.0276031752336103,0.3202161971024967,0.23325638026349116,-0.3774155445170995,1.5737779533914398,1.0288113758097628,-0.4764222780238354,-0.7228468275386045,-0.815787066451993,-0.4606598018880075,-0.7762698157272857,0.1210284891072476,0.8490855298847145,-0.7911657088618259,-0.7038212187262836,-0.6057281374543342,0.3298491903735476,-1.009893767335916,-1.4852096488552837,-0.24377072038869607,0.07547752415123934,-0.1342020675623535,-0.1099776563410969,0.8355767665516658,1.1760998483025038,-0.061227115262219106,0.1225142872549122,1.8368709786246977,-0.25243446689851934,-0.41925759567374327,-1.3485748301329057,0.6813926532003831,-1.4405559511623098,-0.6335568767409279,-1.0137556781333068,-1.2829526042802541,1.51268023877912,0.13627718327432206,-1.5907749629227719,0.31628589192381446,1.007411721615396,0.47197780067675515,1.1326798725750398,0.5632189353342839,0.7867727113488869,-0.09412365116820912,1.5070200147668105,0.8138901429953437,0.2803580556118579,-0.8450157981371,1.0552457665720938,1.1919329647214618,2.147178870702036,-0.05078959638271195,0.4045738192918975,0.3870335031765874,-1.9472465728207036,0.863043250831314,0.48087025464918803,-0.43712633891968744,-0.8138677265666191,-1.1385942309109776,0.6367745418935128,-0.6778641214342699,0.5225944267853181,-0.07304453237892615,0.28351122530134537,1.321060483903111,0.5298909243538537,0.4381544268270207,-0.5331989341921308,0.5080293072346593,-0.024175310439102614,-1.2985820358138525,-0.1549647233688302,1.2212605328074218,-0.8833839752367033,0.35106998059227706,-0.1029408654180229,0.020308415825507086,-0.19699717876191544,0.27700427332002964,1
-1.013935230702809,0.5599406937200703,-0.4376139262084272,0.1823189001657596,0.2377567340108992,0.2628903954563602,-0.229083980370776,-1.2515408324516855,-0.5448376628590246,-0.3553862614705371,-1.724011048489737,-0.5349615255729318,1.1068524514919007,-1.0317252858149082,0.7621037053501298,-0.5472146707800112,-0.5844687375639492,-0.1905811219581228,0.3124029428600512,-0.43631727014811456,-0.5246590256581046,1.3814729990185102,0.12519544762877755,-1.400753302297103,-2.1073636772991553,1.4439812225617041,0.9237055482721009,0.17900756930202388,0.144724075807442,-0.01017488965131593,0.09712592929585319,0.21163929203829934,1.0435283276516945,0.9466363857953751,0.19673420001144282,0.21540858749077113,0.8411434874170596,0.5842720368530314,-0.08627601238392316,-2.8040597046067925,0.6933954062036509,1.1156009671563292,-0.26163728828126115,-1.11085519952541,0.93661642885832,0.9524830356100544,-0.8556028785660221,0.4749961716725124,-0.45570802786767095,0.3437718896612114,1.3953730418928143,0.47191770619818457,-0.6233827055512916,-0.5388015351467976,1.980606105956192,1.2780150690848198,-0.435992830976525,-0.1043299607792042,-0.342987611920107,0.18848667231491303,0.7915439116647818,0.5184654578384862,0.702832996297592,-0.7042424747072115,0.11852653987277913,0.8489741672431368,1.5182227929908332,-2.143474798289725,0.46454083525793044,1.2178549321574634,-2.0099133035078394,1.3662094768579507,2.2091908859563434,0.18413346701689018,0.5414338025769178,-0.9692919743002394,2.047267791899804,0.2831852430270353,-2.558518631184167,0.9662319979450532,-0.9067687341421563,-0.5041134402306707,0.2893374109471496,0.025752636804468425,0.3325007086476166,0.4468922460946896,1.345695015740458,-1.3528297076615474,0.5359501069223405,0.1667969017727153,-0.22622817928218433,-1.258509955477979,0.3965667933193559,-0.9523604865754608,-1.6873570020509345,-0.19366783610087365,0.5926477647018619,-0.7212187068266235,-1.8547357787997554,-0.025563518093920483,1.19930022319332,-0.721553262449136,-1.3680521864113515,-1.60159712045953,-0.713015577494399,0.025801747267247706,-0.4707566638684503,0.25334554272411214,0.10769836180646179,0.9986225317117444,-0.1367974106568081,0.6190874949255505,0.04112713193409075,0.18106577991283032,0.170653538079822,-1.0246914324289413,-0.0846059319400871,-0.632100435575687,-0.8337182700639759,0.39521786832089156,0.4924619297207139,-0.6304348679902858,0.6967617710290617,-0.4480777557220572,0.8954374356903051,2.1893716214864365,0.47856618643234705,-0.1095097218218966,-0.6871181973882378,0.20274452434331613,-0.9777753843481577,-0.23774513128952882,-0.8957918067630399,0.8406829619563517,-0.5302441559038811,-0.031833673710795096,-1.721874968318745,-0.3423131191587415,-0.3696747565486701,-0.9183344209818898,0
-0.2939991641208277,-2.4889212978993056,-1.1535176166764187,-1.6712056017670975,0.7605047775952748,-0.0267757693554662,-2.573002520634282,0.9920458633916045,0.4260424203586723,-0.10740180917697983,0.34086606247746143,-0.12951736175848477,-0.3540222201593848,0.08214938527749618,0.05775191916184413,-0.8165282961942699,0.743758859510164,-0.7945503294600104,-0.303172086081742,0.8483218780666085,1.0848207555263187,0.9437794198206902,-1.69401215122154,-0.18761677536603028,-1.159922841480549,-1.0461397644625257,-0.6401600009752334,-0.2897369746183855,-0.5560864320277029,-2.641440066558614,0.25614060887170265,-0.09272541751731608,1.232181677811791,-0.08860320260586944,-1.889541351319529,-1.3623541766026916,-1.6999131612550902,-0.2699117396011035,1.5848716313755473,0.4991760195422365,0.14043330898027567,-1.0975740458137484,0.4277624175624577,-0.2914601880237723,0.2655120638982034,0.513262246141069,-0.4679668277158975,0.282095498462937,1.8465650368658093,1.2611931248267336,0.908764412869085,2.380793637792718,1.9576649787866633,1.5214279650370233,-1.0432765692916608,-1.1873558719761135,-1.2663161255424824,0.8548689007774266,0.754522346142007,0.4552646483858294,-1.0621357067897441,0.9648724684136437,-0.29645506552602663,-0.2127617880196729,0.7157385329987039,-0.16465518460886314,-0.09235205756669793,-1.421037433903994,-1.5151589759831805,1.0244202929631845,0.32214562570085253,-0.9207415302648551,0.3481119857732532,0.026283730230295545,-1.2218267723562517,-0.10968077193292121,0.27013341923472617,-1.6835926661518228,0.88917125405881,0.20959901183581534,1.7024848055000779,1.2706145404022768,1.6132388398172337,-0.7045479707547566,0.592028237452264,0.07303748933670615,1.5457633881242034,1.3695610681019985,1.6833486393953827,-0.24135973193817084,-1.2286825896921292,-0.8988861210287618,0.4166859842408567,-1.2205994783079266,0.2103595427999165,-0.20241443450271585,-2.2813415933722414,0.2586821560833063,0.6800377817328401,1.2047982042659005,-0.5448762877186651,-1.0517483407365824,-0.3898457424859985,-1.2059130367331858,0.5481854020893259,0.11067510462922305,-1.1979175036632812,-0.42325622208776964,1.5609610838253025,-0.06155397234510533,-0.7250874746946571,-0.526956817546843,0.17484631584138235,1.8221404720987093,-1.0501093725146784,1.4284445666590724,-0.3086216636507529,1.2868094813226572,-1.1557083771320733,1.551880082328716,1.780832347774309,1.8645389314450875,-0.003865335097905643,0.002865733243754971,-0.7388208599884428,-0.976319489692371,0.8996618542562367,0.01577965906165655,0.4802845977441553,0.4251625879790389,-1.2932515920325975,-1.2168851355789918,0.7860574255500078,0.4316434724645707,-0.11935460617807753,0.3989651507195394,1.4496123101829173,0.9234177762217736,0.2632063056953451,0.44755417485234533,1
1.4741951890005138,-0.4112955916875691,0.23036904456141455,-0.02384967479846297,-0.635373061696706,-0.20065433134591273,-1.0172160259995153,1.062537674628137,-0.4361298390227957,0.21173026658695532,1.046311089027389,1.3801452926931055,0.059278078884413284,-0.09505727294375986,0.7048915453755656,0.41239564413377233,-1.14496407038862,1.6468295058146678,0.23793793105697697,0.8171269323673961,0.3546665161661787,0.5135263468767257,-0.16481148916174077,0.6967470198039837,0.6778004326861821,0.8527078763985602,-1.3681868802929265,-1.2177415178089868,0.1229601515263288,-0.4003891767366101,1.237427827867622,-0.8756494468203897,0.8922751169857863,-1.6680727428682065,-1.5181767209847257,-0.02310564012045369,0.35358721429147966,0.6447110898117283,0.9759647607221587,0.3206878236747497,-0.08488876327530363,-0.7955967333138002,-1.7706483069933279,0.6856402605286713,-0.8826899621923013,0.1442339096847983,0.8673471380557884,3.0121738333610444,-0.07492809418470014,-1.1115558442620483,0.15323631248239103,-1.8195347325832931,-0.1659388313295822,0.0214584798450503,0.15458031085047524,1.2084631106175625,0.7154050520413842,-0.6920276700263546,1.3464436684042373,1.2768774424572815,-0.8454137275655209,-1.6442408789103549,-2.2066253236783746,0.6126188716826978,1.0204439025402876,-0.40436453880738193,-0.022597925463611696,0.5492989979957488,0.3054616396189878,0.3717542927758457,2.114110205154384,-0.15903579599998988,0.1862210394043706,-0.5665013093735627,1.0974929205477992,1.5270826202502947,0.23703655239118382,0.38908568992215947,1.380428201844346,-0.3907833067796098,0.31376114412785294,-1.6113554859243375,0.13538171444204603,-0.20516236136535995,1.2019734751142657,-0.17070220692351556,-0.3145836469260042,1.606949320302293,-0.199485800139867,0.6418238847341935,1.4213150946223385,-0.5825944581353341,0.8642211545814228,-0.7418463493368134,0.6503238628527406,0.8666904582918081,-0.5496738290995467,-2.268329372901787,-1.0572801003292183,0.15542725858039547,-1.0657439788631595,-0.4112176270803322,0.5112029511152223,-0.2849936130346099,0.08079082083028737,-0.6649464205381669,1.88179180198194,-0.7218700578020426,-0.048604903841851774,0.5404045974074402,-1.0453508434254688,0.014837149983386191,-0.20902594029050903,0.7720654099067514,0.038161858028603966,-0.585079222399963,0.2967286223260184,1.1246898974452464,-0.29819025902601387,0.06146518422837843,-0.07947233332466398,0.3971935132750622,-0.7586468436496122,1.864403928086745,1.36581450305258,-0.34051995384160466,2.115474232531227,-2.4311258013885757,0.8678785214388005,3.6945403119163935,-0.24511623774525318,0.8880424381270655,0.8902622296591215,-0.21875684135155332,0.566008148865009,1.7055267724505123,-0.8563455507213061,0.5195629603506761,0.9695444780202142,-0.6694266214878098,0
0.129175871629094,0.5255135693406454,-0.6764643599865791,1.501087748122733,0.30770543132932193,-0.669543691631059,-1.1016519923037271,-0.23421922851681956,-0.2734689826464044,0.43677915964691905,-1.1518330882188017,-0.5999456374015851,1.5524337350704358,-1.507664433222651,-0.5692402352686786,-1.1824222323354698,0.2473625960843606,0.7436702253030915,3.5943738372735416,1.0024183618557652,-1.189270207208538,0.5838963361464342,-0.08650522506682555,-0.4487967563495614,0.023347108072160557,0.8947153568709608,0.8353282731011189,-1.3492818168686114,0.04385677915403378,-0.9956260139237278,0.16217306440085397,-0.4397609799754825,0.8199078951271701,-0.2741366371633187,-0.699698987401719,0.060158842507078564,-0.019561656057279258,-0.15844386085109027,-0.4461651533644748,-2.461909870440878,1.943900025093893,-1.3430815746967635,0.24104358697253625,0.3773236733143297,2.1781246955192657,2.312957439071887,0.40754791527743883,-1.0246619469483564,-0.9936358461380276,-0.62204946186837,-0.028975060705414158,-0.4646807629233921,-0.9697339982738006,0.08896803298885558,-0.8423038542812901,1.3831092447441091,-0.8340911375183799,-0.6843515271984179,0.11234042714331138,-1.306299487799316,-0.3712678245654676,-1.5033046832834185,-0.05961212837249397,-0.8281707378148823,-0.49465710295021625,0.1390012600197657,-0.40112276861506924,0.7336239556548325,-0.9891919455457728,-0.4725261860281536,-0.32483765376729545,0.8077739758817833,1.0555879421580725,-0.9724753708456365,-0.4035137879503582,-1.9342326320357774,-0.0008795379907915995,0.04522499810460575,1.4165295532286037,-0.1747077424509436,-0.12137533387534695,-0.44610782351503797,0.5287761673408456,0.2570962556440922,0.43010691252729394,2.141338097783004,-1.488423867226853,-2.7365290646190314,0.7125639057132297,-0.046533016823029426,-0.5734736322651179,1.0125683357073454,0.1701699435045596,-0.4066564497822425,0.8931933643717974,0.7516791561347332,0.6511649480609468,-1.272288945547897,-0.8221536152779512,0.294234999274214,0.4722606240735664,1.4042509477857144,-0.5753542562636716,-0.0029826520248530043,1.1711210244090664,-0.13896215302247536,0.16552948013470753,-0.04414930268379755,0.5698296917839222,0.5051016832226719,-1.606817759926856,0.6462008851061369,1.677051551228422,-1.3869289074451399,0.3399700085605516,0.5776959487159213,-1.3202690592134956,-0.7623463357383818,-0.6816164423461093,0.21732897032666032,-1.36428681824494,-0.6861076971614217,0.3635791923861913,0.8612781051504748,0.03093464155666591,-1.0512902965281261,-0.2733563313776831,0.20262643654279786,1.5221944611233678,0.424836035188832,2.0860729975107004,0.82749934457974,1.2149755236548476,-0.6514136959422426,0.7609894087298835,0.17975765436866872,2.449223629413739,-0.3472601172734993,1.7806559140213962,1.7176450243927182,0
-0.5737848241946619,0.31128048546273435,-1.432153601553037,1.8126817296110782,-2.1475261707460174,-1.6120909764600642,-0.15448837752732258,-0.9408103521013061,-0.9977549432720603,-0.34083991995193474,0.9574555247003051,0.9975764991080861,0.4589236888947856,0.49848736333039706,0.03891884203079723,1.0369071234161455,0.12398239736733409,-0.784683706249749,-0.2727054448641583,0.24103583928505645,0.857252224401363,0.3288345563399699,-1.2271666402581995,0.8444315443569599,-0.3674035321375532,0.5243291152109343,-1.5743744881315682,0.5783227439271335,0.9701219315602755,-0.5114006994225141,0.40297794459645125,0.19901629701133583,-0.7071370289332339,0.9531711078078222,-0.2118013124109081,-0.39069218729262484,0.5993695511593006,0.20380032848899418,0.6733737211753185,0.15621144606794204,0.41644085290966854,-0.06665171102902047,-0.6615890291470017,-0.7140723038181198,-0.6671753243984258,-0.513085915272988,3.0755759550591106,0.5491523994918441,-0.7117798951154375,1.0178218802004362,1.8800135456462088,-0.5177611454791957,-0.4578348320181876,-1.7978436215391282,-0.28047203853005465,0.802102914907953,-0.3362646920320592,-1.0361311328772316,-1.4880753345344497,0.3111077712451112,-0.6231327047899841,2.0271699672453196,0.05334480644021438,-0.7779869724559978,0.8814236278499058,2.040630484996855,1.8069333731312112,-0.9198108757897954,-1.2649488966041538,-1.2945264508811234,0.6992543977124721,-0.2916278515430351,-0.6850765332118768,0.8249022241848474,-0.8797319219141144,1.0162240785017216,-1.0039185362256378,-0.34757037621735754,1.3871247830548692,0.12463490873788537,-1.0324715782666596,1.5148515508607563,1.134883258218202,1.438640165325378,-1.708554208909378,0.29930729999147293,-0.7036735538879476,-0.6052856025254157,0.6425988091835575,-1.7501161958907927,0.15837281075128223,1.5332498860594883,0.14507489145038532,1.0936256891652445,0.12043212579784021,-0.8525496554407782,1.9298707833963071,-0.1922690784034437,-1.2595153219761517,-1.3874284312960403,-0.18577742910717443,0.87407322909681,-0.010897079682215363,-1.4973078772127462,0.08368817293773963,1.0909237168489576,-0.12744740317031153,1.4566638934946654,-0.8359776574016909,0.8976117280543344,0.48409157356159505,0.5282090739456202,0.44529155857970565,-0.32886443378964997,0.30019569521223305,-0.4269349736366604,0.2742442464994844,0.2919878973233939,-0.23310454973672856,-0.14235217931422578,-1.4286081754145261,0.052384019666821754,0.5907309192885796,0.24150790973427677,0.14277728001952214,-1.4361858854440273,0.38228117413733903,-1.2296280147249494,-0.7513281648161837,-1.1535949613068084,-1.0306890037893255,0.1426646382497126,-1.3537613148602272,-1.232281981329195,1.5822620261633011,1.8665187928042166,0.9948183057122015,-0.299337845050754,1.1398841080875293,0.5347977138960471,1
-1.9484191738920433,1.1600089637603885,-1.251460394121316,-0.5131212706639915,0.3025610708393617,0.29426110037590236,0.38332753820683274,1.1972578201432447,0.2704780967737931,0.1582151315141546,1.53347724760714,-0.07952749643545143,-0.1154953427577668,0.4481890813032755,2.000350977297773,-0.688169715471001,-1.7162036994467058,-0.010159538177247749,1.397035668601401,0.5847341010346757,-0.5148616016060112,0.006668788213067153,-0.983079638726742,-1.7825388648886897,-0.28433665147225806,-0.9955842429142476,-0.31298531564964704,-1.4877757964796774,1.7220084860855476,0.9481615341994472,-0.5327454041609057,0.04620845562366045,1.0617930793968038,0.30771292149890783,-0.347252185131813,0.47131251613496805,-0.26346576012952594,-0.1434126062421973,1.7474953767719925,0.42728376115176114,-0.07863045878297083,-0.9954959657999454,0.5411238945310172,1.0360396804404748,1.1541500039596537,2.5651177680365507,-0.9802097882628499,-2.002506703953622,0.9987024827988934,-1.1995175716671858,-1.1573158975948388,0.557084315669478,0.31340338903083426,-0.6405780608946564,-0.822043039571034,0.03199734423565226,-0.47976811338163555,0.12375124589848144,-0.99957046661441,-0.8783186818290906,-1.546917376027055,0.36622175692943815,-0.6476395701571989,0.7287217309232743,-2.2011996484160226,-1.3861042300460182,-0.17446749700540506,-0.6770797184142974,-1.0807468207201667,-0.28023969662135395,-0.28623490372381044,0.8706797608475831,0.26598902187637324,1.1262332189605087,1.535122925746684,-0.6338923273804276,1.1023338662188737,0.8739511306967416,-0.041171781717206334,0.5254032424763083,0.19303528143007628,-0.05818886249811511,0.2587943560804387,0.3262651391343245,1.0208974151541717,-1.0435213638783998,0.7621649695344161,-1.1513847915692756,-0.08394324511244342,0.26123959602068847,-2.5120048802393544,-0.2914553835051722,0.44569694162427104,-0.10934768415530864,-0.9176834235054081,0.7247606193085531,-0.7914915147473607,0.20793689612624822,-0.11039952243152769,-0.08536397282947936,0.16888925961569812,-0.6192877615572392,0.9062675851393975,-0.8123882432844944,0.8378029627879138,-0.3713846562655267,-1.988462913313895,-0.7814840228492113,1.30867355179513,1.1577401008962689,-1.9543802808773165,-0.739995083899022,-1.942090530286079,0.10000385137072978,-0.6776908359379502,0.35455369849209517,0.6742478027484252,1.512218699776207,1.7248145468507203,1.9233815837406207,0.9294941091683275,-0.14711881369968036,-1.8193054881002286,-0.7940643250102721,-1.3573743555808035,0.45934271903670837,2.0839112585984827,-0.8932176947104139,-1.4832801330837888,-1.029034456993473,1.7643480341898243,1.261767849209355,1.0693927159184957,-1.3458286508891493,0.9246452073793631,0.055853623863986374,0.8568412451835649,-1.0638689106462735,-0.025027823108854815,-0.588464234729442,0
0.6900828638534354,2.2023263864435427,-1.3021526448680596,-0.21067973932119663,1.0379787756922816,-0.41002630932818956,-0.8231237400084235,0.0961539503542549,-0.40279715000648214,1.7512716265496409,0.3197216901181653,0.5001961878627679,-0.8652280589517632,0.13705304481168148,-0.06518478321277668,0.6862904021610916,0.664935463815071,-0.5625140628463925,0.12902034186723835,0.973859446995768,-0.6198775652337541,1.9053671715103768,-1.1728832574731705,-0.25726674172621294,-0.8982767092029597,0.5095814321612845,0.011564396650749544,-1.344987646263144,2.083083779249467,-0.583217809670362,-1.9742160892396345,0.23694493954460363,0.1265033555048771,-0.629983980334034,-0.8390281913306405,-0.022221717063470744,-1.0524972912395802,0.8546487469507407,0.7722511168129969,0.07150959907867295,-1.1571440457391347,-1.1251636736706463,0.3591608349041005,0.42191427463364534,0.023461919883554234,0.5296427472994618,0.5295411692152315,0.021330495812168754,0.08007973606098238,-1.6267536065266193,0.032519676292516904,-0.15685255967702497,-0.8103782852719263,0.5887733767611465,-0.06333263403243206,0.2920004684219944,-1.9806083750815133,-0.1770752493469899,0.6427156767398794,-0.3804903140843278,-0.17504594797194514,0.23626631847166424,-0.008285420569359584,1.3135805708180541,0.5363278464706303,0.46491368930820504,0.32338012904144303,1.2485696122293475,0.4346403751531122,-1.0879438339514622,1.0370206021277237,-0.7712303042747713,0.573091155070808,-1.1573414763339984,-1.6616098223556561,-0.27334090165109676,1.6646452883738159,-0.9987191498667789,-1.0898661887265206,-0.7116006430971822,-1.9355619813944183,1.3248257781633044,1.8738750735884444,-0.17286034137458234,-0.7610554558200479,-0.4787323854054315,-1.013780446075084,0.09909497319533155,0.8860476075068122,1.7079852018736736,-0.777390345489062,-0.8954680616743659,0.5994985632828793,-0.26513096234290917,-0.06398763591396556,-0.2846510199265416,0.2750937806644675,0.5144759263690345,-0.008261951044750608,-0.7184647047231439,1.0387998880559313,-0.15552065212010616,1.4232494795378643,-1.046492641420722,-0.4944173045414515,-1.3939831300386918,0.7086706656908532,0.41587827843916747,0.5555097247461334,-0.36554503896633705,0.7740377650841281,0.5556859391680087,-0.5432966387572516,1.9158815280182888,0.032462538564097095,0.19733540034856686,0.8830325095479147,-0.7563474760087229,-0.01277133182141267,-0.6849798915041819,-1.2195254723749664,0.5392395577873302,-2.611972276671389,-1.5362080880262603,0.7515582484539508,-1.5181141019060096,-0.6041011129708113,0.2593098887482756,0.5048404976914621,0.5107393963390268,0.67678743574434,-1.063025448372482,0.5079923991011215,-0.47315995645943504,-2.677561005147288,1.6422155193198618,-0.4467117499570536,0.0007615105749015268,-0.806064482807823,0.5238925611204754,1
-0.41777992130781405,-0.762234840276143,2.520477699207494,-2.8238243547595294,-0.5298711116776217,0.19162384162445062,-1.1996700344240436,-0.7582973478270715,0.2397621747722082,-2.5461177237571495,1.474207312189793,0.17970020202055104,0.14324635314722636,-0.028233269671777396,-0.5957499544455033,-0.3111777193968155,0.10170850765994044,-0.5600881851174646,-0.3868382879683243,0.408300536067325,-1.4305837247938373,0.5592139921800785,2.3521529184359284,2.0143026746107457,0.29478170220678385,-1.2493254041474167,1.3830893044096801,-0.1904341957548869,1.4227110073261091,-0.763595917920514,-0.5875113130582065,0.4813580430316,-0.6867063866865276,1.8771696621772895,0.5636722431942685,1.7732867330383209,-1.1357122786069698,-0.872925692094857,2.724084331305863,-1.6074500717783753,1.3593038157075665,0.20020000223701306,-0.4246391533319786,0.9956989131269351,1.6269431069282208,0.07183091921440996,0.28381599271275076,0.16719846146663792,-0.0741960674745446,-1.6666942789421058,-0.8701999067597489,1.2441644731878552,-0.523413795496588,-1.0313916954653672,-0.355107591480772,-0.24702461200235176,-1.4309911176211219,-0.16449870382071968,0.0927684487727201,-0.7185582926784422,0.31992771064733344,2.7875319006375454,-0.31091565712031366,-1.229564440023553,1.0530871554956611,0.9701121881615735,1.1516714495608429,0.3505542289179312,-0.5853380218102799,0.15568429806848055,-0.5710524601991472,1.3447658926382033,1.000733381880534,-1.5818581078602036,-0.4434692944149828,0.8365197818086224,-1.2259273109668252,0.02674314431982002,-1.7588177264281866,-0.4020082838157918,-0.03267992881973943,-1.1737925467530523,0.1291850778272892,0.5254027189791611,-0.9256074037915598,0.7220827131807637,1.0275373382489537,-0.1983074451610762,-1.782685901652088,-0.6415114414064786,0.2767183138114402,-1.1548471393933526,-0.16064615423843426,-0.8574247969327319,-0.016935855016628535,-0.22406887680910714,-0.04622166940195229,0.4845145842995369,-0.2754099517018453,1.65846400147115,1.4085514383170807,0.4442531046708753,0.4806038076010041,-0.553212865906303,0.37089247315566154,0.5400439250564323,0.5588268622856619,1.04718442925721,0.40377737938849473,0.31964658262671886,1.2726476586777282,0.09963277486929663,-0.6010810980222265,0.5707417871779851,0.6601711017160733,-0.37224895531883806,-0.3728411482420006,0.13148318343275137,1.2762911182569394,-0.49563012867064493,-1.387838696714738,-1.469780153170051,-1.297359058567859,-1.1847647384526372,-0.5272533911057211,-0.5196001432053637,0.49551467616938816,1.2611633284626342,0.885346724595019,-0.7099621838502452,-0.5967103702915598,2.4796482521338437,-1.513337411938089,0.9143647583793778,-0.8552515570788392,0.781906394303686,1.1844300709501985,0.19527130317561467,1.0757816114359349,3.31768974804302,0
-1.3502408206701932,1.0730848946506877,1.1730518638554628,-1.4329906431484003,0.3687597695123263,-0.1506359145630417,0.6527891942258223,0.23753456703977885,0.8575964084820951,-0.86867078162713,2.1744055639114115,0.21808481757311335,1.6444354810216606,0.471145630806445,1.3339988232804005,0.04297055961645652,1.2360921834306844,-0.9843719632508525,1.036270079419276,-0.7161551300694725,-0.1629502846207864,-1.0715982216245188,-0.6489410497914608,-0.2921966343530646,0.6141351305242709,0.36613491127272224,-0.37215689145462155,0.5965741711162236,0.48507670929223856,-0.33590472175765457,-0.38612835561823255,-0.3389053625439688,2.036613886356818,-0.6312084266041158,1.1048952955008877,-0.7490808378425686,-0.42702558710503813,0.4812093642396852,0.6828053960905446,0.34073121807026613,0.7098906330110084,0.6483978104952068,0.6293673013218917,-0.5209097705734443,-0.3101369973040046,0.005088936947722382,1.129819118548232,0.6871888914267941,0.10717688111162582,0.1822564381228866,-1.065064317551771,-0.2441998234513679,-0.4960551358615851,0.8841353197741357,0.2107439910179764,1.2295743773006376,2.322217017080208,0.8354635575720428,-0.9347610358912913,-0.1923918647488733,-1.6293078713858338,1.7837962980250963,2.291094880334904,-0.9328961639292143,-0.41033579357359595,-0.5637748280530784,-0.8434927940530615,-1.4602555526924073,0.8519313375131581,-1.0716925851418635,-0.001784826246884191,-0.7806099618920684,-1.7077305827324685,-0.6219837924822084,-1.4292068387709242,0.0032837155708694502,0.6026071410106789,0.5796003745738367,0.253646619795589,0.6488319940650901,-0.9375424203968267,-0.3133409823342509,-0.31272342229463573,-1.455509611024748,-0.8163291842404806,-1.1069750241414549,-0.14638335029906177,0.5700039566436631,-0.42592322298358914,-0.9596882590427019,0.10805205276591083,-0.42753028765978346,-0.6853848349569097,1.5659646231370392,1.0511122963666757,0.14405329332837358,-0.5071570236326142,-0.4450968472431333,-0.8315587802293685,-0.715070127499832,-0.10404220235227236,-2.4756355522862195,1.4042326236376519,0.3982318387438972,-0.8645527542361657,1.4375296649671723,0.6319387669460581,0.7732986023400468,-0.34452854916739156,0.5261636535020581,-1.6735430896050514,0.3145853311601292,-0.3506531443905036,0.9544182856545974,-0.38000807945038284,-0.5574318469067672,1.180111575406054,1.11648269613059,0.7818034207448551,0.44431956811339496,0.6858090580148865,-0.24393370125920152,-0.8671837918421569,0.32604751484015,-1.7254383386389083,1.329236988561187,-0.09637363940162409,-0.1624121808524345,-0.9350197014000806,1.3099636770763652,0.7096239973289571,0.25249690394821106,0.550671388504813,0.1098005431675191,0.8345069002636443,-0.3475161841062395,0.021333263818141244,0.5480282211865325,-1.404982345832474,-1.2850439381374459,0
1.8396099567160424,-0.8671994378846566,1.5288824347302423,-0.35672507084665794,-1.0987158613729477,1.1965141219115247,0.6089317431981843,0.7220398983571187,-1.185951670916571,0.4469944552080915,-3.040232711009709,0.3975591651900499,-0.8939235544180398,1.430314771636692,0.936300461953451,0.1846688138489618,1.0796988959206246,2.395905985923914,-0.05027932581661943,0.3447010864357955,-1.2456992269563996,-0.8659398037871839,-0.9155330617804001,0.05257543425519387,0.376271878136492,-0.6767561059565353,0.28512671007031437,0.9993975990256878,0.18066671226063025,1.0916306197265317,-1.7534998349478368,-1.580724644315089,0.6349930327787577,0.2462162540628837,0.08125184822665686,0.11621408233087929,-1.1327828501812858,-1.705437352476134,0.9317249460030269,1.0980060282196435,-0.6833957643441125,-2.1157728801887186,-0.13636328941988823,-0.6772421886495109,0.8310069137679753,-0.9570493270526846,0.7143432614069465,0.10684649208625217,1.3042302641360795,0.5584795447581238,-0.39170015339331293,0.3737812786288884,0.009483888066875631,-1.5238439944811728,0.6120953693655677,-0.04581032171456709,-2.128809495683448,-1.4406692597232782,-0.5636351888203958,0.8761735546654774,-0.6369901588084559,0.7484092972089407,0.7915942576070623,-0.1816010141670189,0.7644443737621325,-0.048197065709571364,-0.7440898635319979,-0.22006011399586414,-0.779072340743104,0.8135517201314261,0.4739225488098668,1.5464163213766773,-0.0617882247369549,0.3955945393626759,0.3071144266175172,0.5418304803678466,0.4476668766951549,-0.7483830110544555,0.14164923158289375,0.04077743888196034,2.217046178866809,-1.7154225431109753,0.7947286184154019,1.5411408280727208,-0.90735998376482,2.172124616330979,0.19180042177754697,-0.18676133684034568,0.11786426509972388,0.21280828382185885,0.2685618926058669,-1.1545571430419996,0.47804521545019507,-1.7028758903094363,-0.40127852872128883,-0.3264290072544368,0.07489908041470147,-0.058598619551626825,0.28663792195887905,-1.3213966560187584,0.04169872246115565,-0.8828255200299145,0.3212790855317561,1.7649948087062812,0.11682911251577092,1.5767897908743864,0.26658503056699584,-0.6441421117072009,0.23657099733773126,-2.0430089150306907,0.2554014205986127,1.2756392110353716,-0.9942327037937045,1.090302304601006,-0.8997254456813969,-0.13374547184100913,-1.0550323046128445,0.016208431740388232,2.9807787487004984,-0.5802585320000669,-0.15480289310884165,0.024262858403852706,-0.13375246392081394,1.1443975337841454,-0.620265560092403,0.33019961349146204,-0.3852401391974201,1.6101177330205514,0.25968075965655313,0.14687851917836706,0.7248502539617486,1.4569762591739543,1.024410832036653,0.8810994534625111,1.261744554230804,0.007531262629108194,2.0668857208708666,0.8496183118299282,0.574161684658064,-0.09701590858604395,0
-1.4872363258955619,0.07815565769294461,-0.8575144345130478,-0.4418744657027639,0.1336261290146425,1.3576545622758798,-0.11636728321052205,-0.9729353073321096,-1.4345674097859056,-1.071692926577574,2.1506648238014487,-0.5634134166069942,-1.7810811761546221,0.30010104681374905,-0.6007455350993279,-0.01676716003606982,0.883870450441484,1.234333644416692,-0.09452461225296298,0.34216219772732953,1.3193164175595258,-0.7747594297214307,-1.261653774542228,0.49410180046784113,-1.0259406480952173,-0.43362724124991076,0.005999863104680538,0.20622248912293026,-0.2876289210349666,0.9956003623578555,-0.07695308564861264,-1.633660984378506,0.22915124705730436,0.15055327784751052,-0.29150630024090246,-0.24060191706985087,-0.4955826411107687,-0.854461498496831,1.5052670890513637,0.6253103047882494,0.6787057569497661,-0.2191903154701244,-0.8914052465122143,-3.0308899262247175,1.143389975722229,2.0643253079664685,-1.353570833920852,-1.9672156790538304,0.6548105135213965,1.7921441934647269,-0.752791494864502,1.9568329781588159,0.4924154037078827,-2.4942455860264707,1.1534236163030458,-0.2475342368215263,-0.12972806581453952,-0.2709068380565926,0.08228637570581943,-0.8549723119032827,-1.1682641371451674,0.6040935213608347,-1.2211767824176853,-1.0708350999862777,-1.981357011238363,0.937347397374072,2.375947615286488,-1.3380728247188383,-0.730611612704539,-0.012423885940959016,0.8218569480308259,-0.07279894065328234,1.6455394462552237,-0.748396052305001,0.003972516365222995,0.03762925213564817,-1.7536999851005723,-0.12604434978376666,0.31038871885007413,-1.5081250783606075,-0.7448679345566378,1.818786746177644,-0.7490281030911696,0.12564928192017985,-0.30422618279009966,-0.6202406177416993,-1.1980533529996487,0.36322668647321144,-0.93242474752211,-0.41159285339190327,1.2308110016195906,-0.885761660543255,1.1462721754843155,-0.45660771802581873,-0.2083781190841442,0.462015328103285,-1.4106897117741792,0.7223141486864328,-0.9965907045890945,0.1802866752737307,-1.171976192267778,0.3663974500200831,-1.3948325353700688,-0.563542249418081,-0.5498967220460467,0.5105826389414542,1.4422618054719607,-0.4632914517821066,-0.3504026857096623,-0.722949068580126,1.5613057093661131,-0.2809325651951066,0.46550163758633606,0.3762765092667091,-0.811394963261928,0.5447434417531954,1.238872802321387,-0.4467953418111795,0.958579435536734,0.2834889347541518,-1.1888628343245928,1.5481703971441922,0.7545876907689624,-1.2775677170056454,-0.9381280121386055,1.2892519850298376,-0.984382057392285,-1.3409791023217204,-1.5699326238965585,-0.6688373981508892,0.7055863146229088,0.25294174951161813,-1.2662149693453528,-0.28697782512280406,0.6256154103338819,-0.8594923202709396,-0.1773275647937053,1.72664699033934,0.06667686553734606,1.6115370476692086,0
-0.7842557314955672,-0.42436463179425427,1.257678332700243,0.060496089539833854,-1.2270786617439973,2.032660216063899,0.2789704948358752,1.8776134686713897,-0.6755581493322098,-0.1737350975330593,0.673964574132839,1.4043771453565417,1.038868137201777,-2.4098184382364316,-0.7056686153313767,0.14922189441903488,0.7632433255798505,-0.3566403266977539,-0.39495339847133837,0.22289152016587457,-0.8667325060080822,-0.6517160616398753,0.160393007869223,-0.03929354248133001,-1.1625863359188267,0.26200540272671474,0.41581797082505445,1.3772518807973346,-0.042905063015971065,1.1352702760709545,-2.027205657951712,-0.056403960397543716,-0.4996533963700041,-0.4941849228221884,0.42752859951502276,-1.8262613528759506,-1.6894937103704128,0.5913577709228838,0.18905346550546825,-0.7306967096856583,1.299012475852366,1.0236880837864109,0.3461947664519707,-1.3946874293904519,1.3392057521484362,-1.8966772928689868,-1.1155303792137552,0.8106768000417627,-1.4949879917295612,1.3777630003632435,1.926918261265519,0.6370426598071054,-0.7381279596492623,-1.2976560834172126,-1.5230382159590767,0.30105811832982543,0.10272319655390508,0.2020959833513856,1.3995979118461983,0.7838507864953822,0.3039080478171367,0.09637766070848613,-1.0197232546198665,0.4965138724039955,0.23894787830830047,1.085351507643972,0.2702612422634871,2.3858294288610633,1.193001432140644,-1.8484892849087053,0.23955124670251307,1.2727506948251648,-0.6145801902892728,-0.6447836125339593,1.6824339202401113,-0.9813001971511833,0.5922712263404586,-0.1042848046228651,0.6975049471926801,-0.5754550753134257,-0.6656029496010323,1.1106482155516404,1.5919806549612288,-0.17847521587826934,0.43640095599792983,0.8471159506052973,0.19739735748163775,0.6940078272080511,1.7195555198773274,-1.3155100373083226,1.0022641548978015,2.1410156874272994,1.0699187957049252,-1.2388762929774824,1.6538825466589895,-0.016319672341630388,0.6000162106491054,1.0409585090670266,1.4625105013216204,-0.8188984303396102,0.06406698274334464,0.28729441467657346,-0.8682785009062013,0.7858642670909672,-0.25747978116635695,0.08560776482670548,-0.4904641249640719,0.5812714716988684,-0.5860737924617491,-0.038565318983086266,0.011757893202499077,-0.5366309274123121,-1.8217990881663377,0.685826764568877,-0.02922058387805402,-0.34943715755399174,-0.031415021005115,0.8403811397207677,2.1556825824583083,-1.7176298988995065,0.4261926496754874,-0.47164480794079944,1.43008897889648,-1.315022562193876,0.0976388044308577,-0.15628874109156343,-1.119021373561411,-0.6499076035223714,-0.3066476989866592,0.1512133304900883,-2.3888575111601984,-0.2823043490052613,0.7638886956472662,1.325997622706182,0.3165891305782,0.5467583731649396,-1.2638912479235598,-0.33860878584415127,-1.2436721475767414,-0.18635190748853397,0
2.295667741898427,1.4616653730801632,0.791757606858042,0.3179262547643982,-0.2512725563838898,0.6516411029986842,-0.6022164350585093,2.165742263278478,0.8303336007268368,0.9693498639725268,-0.4932101537417532,-0.4607972878801442,-0.7394004590627901,-1.2495519805372959,1.3913635079139308,0.6841224946226939,-0.4135615518495638,-0.6029419824648223,1.4618166671569615,0.5191596237256525,-0.42246863965634457,1.1621738061762996,1.9035374008369055,-0.5778405240815271,-0.4179635158836381,-0.2221181052033541,0.29704728605734443,-0.03473523094841615,-1.4597276438119502,-0.915321237755614,0.1273789320825731,1.50951099151101,0.21463637143327113,0.927483728431468,0.3419274276435376,-0.16023548218938338,-0.8754450932118178,0.37478373951270855,1.2317702380744877,-1.2667695944243405,0.5719336026011433,-0.5572498255354049,0.35233653503043366,-0.7408914545078735,0.14521536253563946,-0.9465978659837637,0.9699770366177465,0.055354273521712176,1.788821835146446,0.30515172109069366,-0.9988541531849983,-1.5892829933223616,1.4206347766115086,-0.5978332325963327,-0.9861373561588129,1.344436156876355,-0.4349561930399843,0.9127361511463797,0.35271784073350787,-1.9150868586540457,0.6402482424785323,-0.9727752767424654,-1.2332933166605677,-2.216662226818878,-1.1553835566545172,-0.3573430317916617,0.07933477472200148,0.15069439233206447,0.883050571300407,-1.7011058414049185,-2.0810877065744844,2.481906712808088,-0.057060323813981385,0.5343904113461115,-1.4391134979740978,0.6818555498920038,1.0484153777551601,-1.9094084581712016,0.48814638656352927,0.47010614300035086,-2.49383145578107,0.1824263669625707,-0.6524819709206634,0.4607076062931418,0.6986015537148899,0.46872148584887685,-0.30664275204131997,-0.43299440042719434,0.21165943738261905,-0.25859760665857634,-1.478737116501862,0.19408001076722106,-0.18249566744323464,-0.18409886809420534,-0.35701452219204055,-0.1980338768592398,-0.6508484898653263,0.8568117693791671,-0.4360550872103052,0.08001466808844881,-0.7071853721070075,-1.0946585506523114,-0.11381778033673495,0.6765054513157366,1.036764621750901,0.715269188493197,-0.9444969024176944,0.05549455116658073,-0.08390181728722666,0.7274270794652198,0.5090374008651458,-0.625398117051247,0.3476979389670509,0.5713003751318371,0.32876183949832327,-0.03656806067037862,-0.656928783967531,-0.401955415771708,2.1643338726750345,-1.1841899643517508,1.8819871294495951,1.874535048186381,-1.300424347902149,-0.6223202996488665,-0.30775435783379285,-0.6155587748835547,-0.6058142269051487,0.6968350826181239,0.2557653120658633,0.5500233409340319,-0.15376095662417805,-0.22335627726671484,-0.7489483208396035,0.47926879539121,1.0190326276254305,-1.147466786864102,0.7855199076648258,0.2745106312459076,-1.1566700700226162,-1.442857615703602,0
-0.27660048057801645,-0.5168501228876223,1.042691347394373,-0.3914820056504707,-0.5419503796700509,-0.44214078809373103,-0.23508827094711515,0.27928766937201355,1.0657436018525044,-1.2331697316505135,0.39639521126173133,-1.3381386308094338,1.0457062343071934,-1.5549375026023309,1.2240326044552876,0.9435010227214548,-0.7846162229145981,-0.5341600341240781,-1.8959009683201526,-1.7610164138919073,-0.29947549541613494,0.19145847632509255,1.0400393164963897,-0.28189039674876976,-0.13491516048675198,-1.2570836223896074,-0.1469671053094696,0.09698776210881337,0.5874106409815033,-0.04699535698626683,0.9391128326893776,0.021362470191865192,-0.1352158061498985,0.799601280756396,0.8067801460821887,-0.32215069273803765,1.801289981846973,0.2620628850253957,0.11339859730316443,-0.31392637646164434,0.44767664223319364,0.8714734607715674,0.09338507774160403,0.21772070228960683,-1.1179279451957584,-0.8373818931355759,-0.7715653132749208,0.24712566991270896,-1.1318237038847734,-2.0111231535671816,-1.3974060678810352,0.5327491086024403,1.675981326616057,0.9489514441838611,-1.0818495259566585,-0.8569699844066991,-0.6298550377239154,-1.5480362961692882,-0.2031332006386121,0.4554250048855695,-0.9850870874495027,-1.197478629265045,0.7785136654106625,-0.9067539978262498,-0.7917787281063154,-2.3955348150583955,0.9190280408684772,1.3158911649573108,-0.3269691100692994,-0.06548342536955984,0.47921367908777807,0.6599520574857946,-0.08052198850591956,-0.5869762407985916,-0.1601685700398007,-0.3875270028229366,0.23674176457685803,-1.083091713778954,1.1669340528638468,1.9710138588922175,-0.7236097721865455,-0.7845844518340266,-0.851434419856242,-0.47513803862330445,1.7431521173780502,-0.5757754573289285,0.12794345587825415,-0.46917369930992514,-2.05160621299806,-0.5559002845237359,-0.047392056008953076,1.521189705246073,-1.7500258283373384,0.9440871340509057,0.22545496231518414,-0.10188507882252057,-1.0458866455140277,1.2256054371512581,0.3311604564371013,-0.04830868550599784,-0.1073734651156422,0.9255611632817045,-0.8629452978979854,1.4229375577603163,2.1896614389229456,-0.310799886029227,1.2887851560075627,-0.591012922876037,-1.1393647883019877,-0.5886060583017997,0.4047685974474072,-0.24648912944635912,0.39719023352462574,0.25333939947339096,-0.43514202250332584,-1.2340359358908763,-0.03934139842097978,-1.383298920010822,0.062113932485339224,0.32720759358327417,-2.3366166950851723,1.2613831257381483,-0.3456210319537162,0.5031889688455115,-0.65922845886517,-0.4141757162000518,1.599745584267092,-1.3594519291698635,-0.516638022559018,0.04498840898097015,-2.4746373464057845,-0.9336861377474205,0.8081400496354281,-1.2874265350798786,0.15269036311390638,0.3349728305637868,0.5020047361728538,-1.0610266497097605,0.15690749300573006,-1.175470250504545,1
-0.29956912385543577,0.864910429056971,-0.852773835653931,0.5293963835403404,-0.07896983259314659,0.7571476795467095,-1.9705223000561278,1.1760291761846267,-1.8048466629363653,-1.2292411570629127,1.1426583611221055,-0.07614302562047713,-0.4438140716979864,0.941107578090432,-0.1293814330007422,-0.9923672164688347,1.2468333077340248,0.26252466200675,-1.2800091564978524,-0.7708533551205508,-1.004380310457673,-1.1837967097822137,-0.13581193717942294,-0.07637010567829039,0.42395111756491277,0.5595280551827327,0.8455319966039481,1.0190369330000912,0.4865254789519102,0.3562959805642627,0.9678292392580026,0.41294872520263987,-0.9527652453092427,-1.3929782917626357,-1.0256852129436622,0.3152512498586508,-0.3058079213596237,0.22704182149475496,-0.25779228424286466,-0.9193504936056868,-2.5930444047337575,-1.219947093719181,1.7473205069457303,0.9628541755298464,-0.7488585001689393,-0.5349785544279864,-0.5021907735849725,1.0903104788962588,0.9090247841314016,0.9637133169168409,-1.0129325977568069,1.7857256318029828,-0.29062518316185854,0.8376518788683325,0.29218402881605743,-1.7104964002485568,-0.5150064107982087,-0.04026017253570922,-0.8244409037688747,-1.4805410066728624,-0.45933012007237795,1.3075834411874607,0.5518521981259227,-0.5551274868494979,0.21950785779447324,-1.3616451985252664,-0.023327547495616306,-1.9461329838195407,-1.1918195682175545,0.7936553746326916,-0.6068432552092394,-0.46714869881447213,-0.11240573950214731,1.5287412119711898,-3.688023788423211,-0.9469688107025396,2.357788140146842,1.1370569395707175,0.49555328151917594,0.23560601284341418,-0.2770382895341645,-1.4015171666284305,-0.44991845562505456,-0.15131026944505496,1.1158040383745573,0.31993571257618586,0.03559761551028774,-0.6840842522611122,-0.5006619297415138,-1.7751370368207124,0.19930820334577354,-1.2709431110438147,-0.37858489056513,0.9950652504156302,0.23376668378619425,0.30452799435464106,1.1966672193590207,0.6545946433489966,-0.16222812017081825,-2.025669187421856,-0.44602516954830285,-0.11178624252069118,-0.02032471620652964,-1.6428515060324467,0.16212755380874438,0.7108220256441219,-0.39757826368299987,0.42145936330329264,-0.6966165486492225,0.21203178392820557,1.847147517564486,-0.4428717405125633,-1.177414972857995,0.7125378656549857,-0.30082676142092174,-0.8095911224902081,-0.7786884298819735,0.20950993072086493,0.014483813686223574,1.255404143555272,0.38832565199486263,0.9317458326078661,-0.008221348401596527,0.46029655934876784,-0.07813615539931118,1.78106463927125,0.43911014705042434,-1.4803219558165892,-0.2163373450341813,0.20113180187569385,-0.04071306368370641,0.8068618588709258,-0.5078014911363097,0.004561968460164128,0.892129516283492,-1.417264685824705,-0.9727727067797016,1.9076770129740472,-0.3787115727134614,0.8356117025872096,0
1.0716596137489276,-1.2977025933928343,-0.8602249680841872,0.009109947691421857,-0.6758061670282118,0.40214496357552704,0.5271253248141532,0.20459028545052893,-0.04977404562319688,0.575723101836902,1.1932122609188183,1.3017423905615044,0.2695604811439857,-0.8767215875357587,-0.1754605493619274,0.6769345966572455,1.0987784803157499,1.0664293808046017,-0.17634669615989326,0.22536198895809664,0.5198790649436041,1.4609598702759499,-0.7554931648508545,0.4598409437715143,-0.5144989867622263,1.1684411637999503,-0.03266633564186748,0.23836396104332297,-0.8377979882814728,-0.42784718422631685,1.984615888252313,0.615256706699319,0.18683847165804965,1.3713287101904221,1.5089012704944902,-0.039966738873624334,-0.7635252953262255,-0.15231783207804153,-0.36087118475854985,0.10140760024220408,0.2722370250676172,2.5225519927613616,-1.0388769834116294,-1.3082740229869259,-0.5882064084638812,-3.0348232237899584,-1.8921616439056657,-1.3258030718660503,1.1332829726473734,-1.351708638634594,-1.6971461433625696,-0.8441077020432483,0.39965647339913085,-0.5125040008036215,-0.34159785014608346,-0.5740466289048799,-1.3240828002526035,-0.9241285124975063,-0.817612644455168,0.6338673598027466,-1.1200784769308745,1.020248531585762,0.6835887021972628,-1.564208600896858,0.385920674774929,0.055527373079060915,1.36065372642835,-0.8175660125375194,0.6541371482229307,0.7960659075487216,-1.745117736390051,1.3091978441613492,-0.7344941743531725,0.469076675775533,-0.22066284623851176,-0.19142004697582307,-0.8054984762482542,-0.5933687751944953,0.44959925783153704,1.4173995265811747,-1.2176898655268282,-0.531464556849754,0.261446004736885,0.2084104050423824,0.5009756400045507,1.1613917349931473,-1.7147443008719152,-0.5710141668233527,1.0443650972294616,-0.17900217323785847,-1.1500808738251416,-1.2653449438834676,-0.012575520373292607,-0.41350452394488185,2.15716407858591,-0.15694052284961704,-0.7637405011879909,1.2485461835997607,-0.07911612225982967,0.774865103796054,1.8820784788607265,1.4778601988243303,0.37270087188583595,0.7273332474332272,1.3467423902440079,-0.9563602596179763,-1.3056098360195616,2.013774368999746,-1.251318609589626,2.268332072010166,-0.6947681256954628,-0.902927242729632,0.7936673213517343,-1.6057576264068925,2.5716536297669426,1.9240508915090344,1.5399898728209191,-1.525458185917852,1.2948900550242588,1.1893768703723901,0.16622226596011686,0.8412261940526425,0.617466921117877,-1.211329583257256,-0.4369631607007293,-0.30153198821666927,-1.5169863118528475,0.7536382841458262,1.1294495432682308,0.4529167153294135,1.8736531530129559,0.3483231852247874,0.020840048973729097,-0.5521421717700077,0.27629469469955437,-2.695154282340985,1.7634028115707394,0.39225929317221714,1.1336394685171027,1.1462510093922313,1
0.7364429464500444,-1.0211285796388547,-3.3605243631935546,2.1829220404685676,0.018195042471831385,-0.3380323506348633,-0.2637665748660341,-0.4616350352676084,-0.015214434382069937,-0.07514306756152615,0.1168492994257448,-0.24298100364433278,0.8886873457739158,0.7265393610002042,-0.5345098314049466,0.19403777762571311,-1.1642547729063661,0.6236844168326248,1.6896336358755784,0.883488241958638,-0.08156801714977054,-0.9663982367248456,0.6846796484832944,-0.5943276027843455,0.028661994083679716,0.7667107245169449,-0.8028515881614556,0.10471657276985184,-1.037910994970292,-0.3235968554861299,-0.44698885620254775,1.225760088839458,0.2170364455271178,-0.6616751736142161,-0.40963891973793914,1.0273789531147266,-1.560000499645182,-0.8028281853098512,-1.0385495528301865,0.17633723186388,0.1351144104122131,-0.1401956123781302,-0.06985685103222883,-1.3328346432660554,-0.9259227096664872,0.5924767567090379,-1.4520909372199609,-0.2583019407509382,0.9668129997405682,0.22044693050162306,-0.6759227578089047,0.7252197167550545,-0.7154872162740793,0.06108690831383105,-0.7711212209103177,-1.480165516990379,-0.11456660486615455,1.213534205311154,1.1451649233955221,0.7389808067932679,0.7208710915815565,0.7629354260850786,-0.19941520209385866,-1.2422976885764228,0.16902073599868372,0.9417683336274604,0.8645739901601811,0.23629493667579785,0.34007984173909434,-1.3981956068620314,1.5602231248481604,-0.11360519763835514,-2.1075185593415284,-0.13680931231548452,0.07988018860207773,0.536843011601638,-0.07230620530081086,-0.5771538396917995,-0.529497450279521,0.001769142445170169,-0.18270601656630067,1.993209961766235,-0.32721959269826606,-0.7688847787727194,1.0855488089124334,0.0020153471558525928,0.9107111522500905,-0.08719637285313409,0.7168061417008474,1.2625291336444942,1.426746113748462,0.7614761076554852,-2.0752888848313167,-1.5135461128182888,0.3015507739488709,-1.4584515233771778,-1.0846281428703657,0.8991470723917404,-0.6639124123957864,-0.5684133205515254,-0.39535394181383027,1.2133826481461956,1.26263384586481,2.3368960161005865,0.856127240726259,1.5778299994894398,-0.7046930217549418,-1.40852760318456,0.6055476006515005,-0.1920259505300375,1.6683960593931144,-0.3833604278905907,-0.6126443160668615,-0.2960146094172618,-0.04223529993257961,0.03250733721561138,0.1503501553656249,1.3467194598797656,-1.1513616378236067,0.8850735308993881,0.699242776612677,0.31876706244320574,0.4485899727674602,-0.4481483608052162,-1.392342710640395,0.38225405129616224,-0.47613863418528535,0.5807512200159367,-0.3197748383243051,0.8539239387510684,1.0606332864126438,0.9233377253628667,1.2530058965315665,-0.013612386632474265,1.0011368223181485,-0.36956363353418875,-0.5448955795830706,0.08298694711538528,1.3121979040201337,-0.20263526784550198,0
0.9034738990529152,-1.000893256469984,-1.8749366617447132,-0.48401224788212327,-0.05130503881940584,0.9958729319080869,-0.23105727323592926,1.6148472204508477,0.5015209939924762,-0.23277095695970842,0.23303546165398834,-1.0546157488097014,-0.22639038381765847,-0.17846463223308562,0.19325744432690037,-0.2924254213779496,0.4662368003631126,-1.6075762475006234,1.1047037427667297,-0.021935780486319313,0.7636645365815882,1.041246685112112,0.1845840279707289,0.8671281521844648,0.3594739440156901,0.3177200467762063,-0.4887493348115824,1.2080684270846447,0.10929443789949522,1.394951699434858,-1.1160011496916429,-0.5935222443553997,-1.1023957133534952,1.087412702943701,0.5970313029805139,-1.5375467429732401,-0.8439193521072373,-1.1338320840269456,1.0276138747015668,1.207819409591684,-0.46849561805410794,-2.068888857336394,-1.9808379835573893,1.3106219704158053,1.2354034095370487,1.5578308787454085,-0.12472281584286445,-2.0566486740041143,0.49071928826897393,-0.4881037002141008,1.7711193859314927,0.6859392971008408,0.19952897871563186,-0.3960402370639951,1.3426514593663195,-0.7158153490428242,-1.386509013209882,0.08102488254207572,1.088648607091931,1.6415798229660103,-1.5749918557467342,1.2716750380423305,-0.06228222513859456,0.8085678860475574,-1.427857544452874,-0.38407515091346,0.6478292183224992,0.0006053628392598313,-0.1211134300758111,-0.3387703414511619,0.005615245215184983,0.022516016261816714,-1.1312205832240365,-0.5570393899236414,0.5941129468290982,-0.1317736995061187,0.494205336917499,-0.16586577738915312,-0.5713552854981746,1.0232128329507135,0.6432976040471062,-0.10824082968557258,0.7755679801366038,0.6209483913152992,-0.5718875970509931,0.16544940562940413,0.37712774763487317,0.4883410747431518,1.7596597054863878,0.6448023391437254,0.6574421559818426,-1.0858899208643027,2.6537885832298396,-1.287825707739201,-0.5523984726045916,-0.5096254072993867,-0.31470548759305306,-0.8769891728524261,-1.620315732638292,1.1796292790543694,-0.5154304193083339,-2.119564015518055,-0.28561225270818585,0.44468806695261015,-1.5956209837611224,0.6185900502133307,0.31541192939634577,-0.8703719701251653,0.2857328889933785,1.625583207833968,0.0561881805174985,-0.4985490378877044,-0.8228977617172301,1.814431566046797,-0.208707377789561,-0.23787473963587202,0.8802883808525226,0.5716421097085169,-1.3783417504101965,0.20376293195425932,-0.48862160976525176,1.1784061812178233,-1.1511655393118945,0.7938901054766395,-1.9612413512560987,0.648347387538532,0.7744867568199472,-0.9002500850534828,0.8659955563711004,-0.12560732401630298,-2.187528103149866,0.29764530487672153,-0.8049672743266365,0.9306153964896343,1.3104478314394226,-0.41253108572978625,-1.0891084468542618,-0.025792140821761612,0.7326846569457586,-0.6087467922391633,0
0.45781965983582495,0.8960814126992502,1.124268979956492,0.38187386601110074,-1.723546828934922,-0.29564237264024035,-0.2099556186084097,0.08796360213532366,-2.574798790965321,-0.798373502792222,-0.1822976029835762,0.44145555088987803,2.258349229089605,0.6590340405118137,-0.9968913638455074,-0.8308900438145415,-0.6807421594348706,-0.391491970940512,0.22606065533809847,-0.9437495191595433,-0.2188144777191234,-0.19942960659340925,0.3381459515142075,-0.4074386196854469,-0.7661214223988818,-0.704093692997897,0.3920642778739582,-0.7254409875949996,0.6993674756878101,0.3664783330210445,-1.0892469677470835,1.238674007802121,0.07980451896613842,-0.6661361236865228,1.829769475675451,-0.012019854558574407,0.3581575107077089,0.015564230075234681,1.4416541529141347,1.7804972998816948,0.2587883901133199,0.07137415367326033,0.9346090625714698,-0.4832461593166584,0.24721496356203715,-0.651747764282046,1.8925062125203769,1.0859912147757733,1.7827381558574296,-0.490789085655246,0.9083883685089571,0.4233405335271505,0.30564295896329957,1.6555393511710181,-0.9123819234775093,-0.6055084893481829,-0.5339136296506586,-1.4436090542276205,-1.9922303684377625,-0.16977365028454022,0.7444065633386028,-0.22279493688074262,-0.8175701815725933,1.2141586171030938,-1.134705380394568,-1.8486042642972533,-1.5235823670582835,1.5633426412853473,-0.20311938584927364,1.2721292218743594,1.2199810912946525,-1.9325362450551709,0.06196418806957255,0.7727387023952583,-1.075203980633968,-1.2885393735957715,0.5033004751764663,-1.1960141252338967,0.2871991963050735,0.7531128576997056,0.8884585833863048,0.8070470014501319,1.2817653211725508,-1.007135890655055,1.6883240212505017,-0.512843822581235,-1.080308663926999,1.0747758915476908,0.6209051436027392,-1.7042113170381683,0.8738854682834892,0.28398559327386413,0.03320173454296661,-0.475270139661343,1.3092598145831984,1.5831888459655241,0.6480692727427506,-1.2479806397255744,-1.223087297543289,-0.8260260169514168,0.963016072526504,-0.3235473859294994,0.6208947473513055,-0.5944872879412877,1.4009158543310543,-1.1538139426305623,-0.22163319875893855,-0.23672416547957945,0.6855344862503218,0.3604054477873188,1.481742187237524,1.297164482884873,-0.6999585534878994,0.04370701298742952,-0.0076727893500615815,-0.5407725458649097,-1.5407222426883402,-0.019972860334530718,0.873659744690255,0.1928650594735215,0.33785613971753936,1.4343014442647388,-0.8731691592437506,-0.794946653086069,-0.4288374013792657,1.0782263572964499,0.8958288406772595,0.26474637203507595,1.4292505798483406,-0.9268285468421245,-0.42257627186944097,0.3633099647772605,-0.20402206041690887,0.8474964158906086,1.728254463816373,-0.09198884561333259,0.4098737313366567,0.9278435149452878,0.7649479739173725,1.7705063989426417,1
0.4166746903971594,0.053544972201341794,-0.9709222713103589,0.3504757570149784,-0.9180304574553676,-0.9584483905529863,0.4138862312576262,-0.3307578052746191,-2.4202978370342065,2.321485037687143,-1.4532813342969415,-0.2545983276468923,-1.187443941745794,-0.2552577253857142,-0.43984617713838636,-0.6729566772237706,-0.09656160514314446,-1.0623065147182573,0.5367639365511403,0.43508011788274176,0.06584407456502352,0.5408608610335064,1.0339568801627368,-1.406280379189046,1.6081145754856323,1.6723141945070557,0.8587288071996595,-0.32647105013896494,2.127177798197153,1.1193348205826834,-1.4957295500250671,-0.37603249810577044,0.6047488562884119,-1.267844066351642,1.1028719462370773,-0.19603588753353576,-0.986612293717753,-0.17598098417037872,-0.5543730375201407,-1.7206033550914117,-0.04057771172957356,-0.4185595708742169,0.11583249546327312,-1.079560561060639,0.1612435694496395,2.414620188391559,-1.249450639460355,0.06512381737013787,0.3195634127954714,0.06606975145424133,-0.024771149778874926,0.07813151027432906,-0.4296335535956431,1.6798374936957616,0.4135597505176663,-0.6232140585250041,1.2110275242539903,-0.7238355149405766,-1.1348010735550498,-0.42119877449078613,1.4345544193361743,-1.1176884866649974,-0.28616725416231836,-0.5842239774367961,0.8566307614144698,-1.075223866266651,0.6304005387672029,-1.3339381865471585,1.0931080177427916,0.5580522673618918,0.7337322793235447,0.1802564813211473,-1.0661163038686683,0.7951538876575085,0.58804160813247,-0.7621041117700696,-1.2377310296296273,0.06919616051752636,0.1481499045730011,0.7305831797693431,-0.6254085952793024,0.3852853575387816,0.9807887739144708,-2.0787659748434963,-2.3291775520069757,0.17826003968764254,0.28499813673696023,-0.629961107365007,-1.479400139840477,1.8221308193210395,0.06677611070242041,0.11136649316511797,-0.4987740695401123,-0.15076004219766473,-0.27367970591157864,1.3730570913230198,2.4826162630592106,-0.789135867598538,1.091642793121364,1.6123910994135922,-0.8278430217648471,-0.5619335407651279,-1.195474730894682,-0.5930182943977959,-0.8672176587829251,-0.21999168148662523,-1.2757487908301188,0.6017952540556344,0.8422758374755762,-0.4326353405281719,-1.070277140610054,0.2025132461204018,0.270498007920608,-0.7096007525302602,-0.41736299170948216,-0.46436259625824866,0.7938286293568286,0.19679938600397134,-1.8268779737518297,2.388403599950519,-0.43388040826561175,0.7536563323968388,0.06225905967392473,-0.5023009708883321,0.9557163777887848,1.8056539550798891,-1.1192838972734642,-0.7832302219859947,1.546752515954267,2.069012324109658,0.37397189006891807,1.3495156587003636,-0.4727955341808227,-1.6668771306975572,-0.06823819854161256,1.4291396036003081,-0.7209300939286056,1.6205778835379296,1.2486937258942874,0.173929145201268,0
2.872182836026407,-0.15227304025682742,-1.3003472811299086,-0.3271938430905817,0.3772123919779863,-0.6664016563258238,-0.6863123748551551,0.48077542142486784,0.8544709363344494,0.29708364137137644,-0.041568040923565676,-0.5695248446465809,-0.7141661244216942,-0.25967863331278335,-1.2562186318461686,-0.5953778180795698,0.30829676773174675,-1.1545916156766152,-2.0675943706577815,-0.46231271862706935,-1.1972084984250058,-0.530068778550823,0.8482074744462892,0.8404654995167958,-0.056801538215500554,0.5779690515237174,1.9684342977840652,-0.25414750713516226,-0.9695110162509711,0.6696514379925281,-0.5037205989780245,-1.0841430856184662,-0.24874751349479945,0.39382988060073015,0.36282175395532285,-1.3841639023929293,0.4318361456525054,-1.4604184880182782,-1.2914806354730277,1.3399338424144465,-1.721028262937562,-2.4050585434331775,0.43893036149412584,-0.6002121719358753,-0.39164742666583097,1.486170947862074,1.0662668865886078,0.9348109770121217,0.028256152995951973,0.5130295032507295,-0.48419369274230234,-0.6082590615438056,-0.00554628763634653,0.6070664717638061,1.5517830629533844,1.07253806860409,0.6715908565468267,-0.11590527042961017,-0.26178154239732054,0.2284731048290704,0.1768707566405729,-1.0703331432548977,-0.376213372356615,0.028082714964140575,0.6433195170541053,-0.06392587920582159,1.924501060445546,-0.6106523488786441,0.24408398710398183,-0.12324231756199527,0.4145560738710395,0.008852192707021424,-0.30902643618862247,0.5562621638649283,-0.8181492465631834,-1.3142222986554837,0.9598692464322985,0.02182397581256901,1.5067449602544483,0.007393474204915264,-1.4518771956749974,0.4226197368511621,-1.7927373487703597,-1.607424149819071,0.020545646404446744,0.20276138914203445,0.13373997902041515,-0.7601963747291547,-0.7938604628337379,2.697368238935071,-1.1290356925365848,-0.8033901583967459,1.4520596408254867,-0.8043287981766066,-0.25986732766457804,0.04269796525880937,-0.34414109593889114,1.149204020124703,1.012665197223086,0.7781566047611184,1.4560039629999173,-0.11675551534589923,1.2702746123400548,0.47014991212174045,-0.9072680733377669,0.4939555191784305,-0.4380378859313654,-1.5081623115647447,-1.5075298243093027,-0.9635196429441714,1.562294305624303,-2.7217149860959164,-0.2654237763963322,0.5442858265100103,-0.14544566368493206,-0.3465708898034027,-0.8073282372219046,1.4759974540964798,-0.45191842663588677,-1.2276556388043958,-0.4936766704132915,0.2672187616736769,-0.7677155037971887,0.4121884089753825,-0.0427744674139278,0.3679454555889232,1.4035092505266618,-1.784260698221995,-0.41787973745303714,-0.8878481907745085,-0.7246343907726921,0.12084389193415143,-0.01843470672067658,-1.6969956572065124,-1.2031674136338977,1.1090481747142908,-1.3670488128222462,0.6881820870691961,-1.9303554547730621,-1.6281110522484368,0
0.5130452491011493,1.4933851537965097,0.9637731218861053,-0.5228736124556483,-0.7515255115616254,0.4258144947758656,-1.631465686837411,0.4427556707813585,-0.5570769672917206,1.6247471518131535,0.296525372707001,-0.17459282384170569,0.22697845202270647,-0.3597188925814986,0.4953035532924238,-0.8836599386169929,1.0740712311210778,-0.36248862374340846,0.8316045063089544,0.7647207237816702,0.15164636773606718,0.6914925005345257,-0.4440636374879235,0.6438503641104492,-1.6026018537579552,-1.0552555673019286,-0.18015850221557556,-1.8923877510446878,0.08773187866548475,2.1206893750909184,-0.7117318890203256,0.04465448576060608,-0.9587235924305982,1.0798663929701728,-0.222910958815205,-0.013560915108012933,-0.2113397167706155,-0.25878549616628477,-1.229915947601508,0.1802269719677565,-0.25966774341325016,-1.4875531754457039,-1.8387733731222908,-0.16738404450354105,-0.30254221732893716,-1.3179224611037534,0.827580803110986,-0.5217527148848309,0.5573661217127444,-0.8397700906490708,-0.37606149131519606,-0.6062554418531807,-0.3829683340342441,0.22351734479892438,-0.27378087590765604,0.6249427300868976,-1.159820913262139,-0.7251731673556753,0.33879639678965556,0.8993256459639262,0.0867352371442533,0.7443985980907376,-0.891353634445785,-0.48620091290635126,0.5724094557799738,-0.3630744096911028,-0.4578484568511405,-0.383375958064712,-1.2093618486296864,-1.0517893919493708,-0.6898918311449739,1.4285984297141405,-0.42434910569284084,-0.35343460319723313,0.6649755854300301,-0.006318922719325251,-0.48076048295446866,-0.08852875334855276,-0.9084087311261747,-1.198413189790484,0.9649401966229062,0.3134632153889868,-1.9371036337765928,0.7990292836852352,-0.21119986773831734,-0.26158361772376887,0.9232325711522785,-0.9835133038469233,0.0543395457829973,1.4318691665807846,-0.29416139347006903,-0.42176994816405877,1.64417718037083,-0.5437250043602092,0.6904191852729672,-1.281605253604961,0.7933897287346251,-0.5534839163150066,0.9125372194300893,-0.5497048091919786,0.5241541271481238,-1.9252533265218121,-0.11036053838875906,0.07950268195998263,-0.9875262453896587,0.03521177816526583,2.6721934737627757,-1.0179151423094832,0.45293009114243127,-0.5911898255143331,1.2052416990737644,0.264586198086347,-0.4999669631932642,0.1263830677290981,1.6928507071889127,-0.4779845059416753,0.891658468230839,-1.0727551898658945,0.4144644490441988,-0.09425155492684789,1.1929076148230373,-0.05429031789240508,1.273113133667705,-0.8038894818365625,-1.197803080773648,-0.9658669066042502,0.4676615492658658,-1.0802260399139938,-2.2250258154450173,-0.3390168088166054,0.16131649850632723,-0.4502484485353576,-1.1306757224231418,1.1664034385201378,0.8103214069023372,0.3397241007371958,1.3008226329535322,-0.9014387588837435,-0.21092372745570984,1.1702670689038615,0
0.1613928364207625,1.7014069107147383,-1.75015140954528,-1.817884532805417,-0.49617208011677266,0.5833978056644111,0.7109837277032586,-0.23867740239114904,1.0313803747832662,0.4157122516748885,0.06575048198751807,1.3304583755584325,0.06529144699422212,-0.726977969824027,-0.21785767686573593,-1.0204864750896219,-0.1975561457666406,-0.8182523047089814,-1.3328182460537854,-0.47842337155583325,-1.504712979969235,0.7488707160063107,0.6366393085097151,1.0164666670222942,-0.5315742968667249,0.4531286204250039,-1.1413074261020444,-0.5707796413743365,1.0251449431783475,1.1745527579944819,0.12345659549657763,0.6785135497261002,-0.23251585517996634,1.0058179661199353,-0.9104686688331652,0.12025944170074684,1.1840140228808178,-0.5059382738121591,-0.013796594947532374,0.43259747854950853,0.9394881995830766,-0.7412125830441627,0.3757778553215273,0.9792696160333106,0.9759816161918023,-0.043173920061397794,-0.34830501219162013,-0.012481531997592435,-0.7072422668575966,0.5360394357053421,0.13449497012434808,-2.4419150859240015,0.3635700938872378,-0.48875923482361266,0.1640219917155544,1.5175062403737452,-0.9106193324734346,-0.39508608306821336,-0.2321041422445208,-1.3026163911498814,0.10028394091223533,0.4336531159924161,-0.3847575286334484,0.5512679694713706,1.48878402261684,-0.6901610719910498,-0.15271481234282636,-0.2937054947935023,1.7740926835916835,0.5726825622000628,1.070716960059002,-0.18744418705420496,1.7982765081127123,1.0034345667636857,-0.8949302903515209,-1.1925152979709908,0.05709581179962631,0.5238715418846833,-0.3656595067482154,-0.7333998940964279,0.9682856622324948,0.36283917703118557,-0.07771393774810616,-0.7321441259109842,-0.06623195101320141,-0.7551308232645267,0.9187399321808191,0.7456241088127812,-0.9457689286753391,-0.9166162458996816,1.3071243122370988,0.8036034736060765,0.6937527538754684,1.1422996701768482,-0.9684608480439743,-0.21493369443767996,1.8964868304129363,1.5188845117265484,0.5861872154775185,0.2090425851856823,0.5526625282240929,-0.07348652930439523,-0.6959299971991738,-0.808480078551881,2.1841131883178404,-0.5852575520829536,1.0459567430436256,-2.1550280180525316,-0.5213743172360653,-0.11294386981174587,-0.5480265660632929,-0.7696054307522979,0.9391800982111342,0.3469852478643997,-0.5458135810993888,-0.6341881920277329,-1.355899198890734,-1.1084759613402404,-1.0660037652220637,-0.44813528614325737,3.066890509957182,-0.5479774360415867,-0.44808194550677544,-0.556166301912274,0.45300888024182806,-1.2759991860611288,-1.0072672694305589,1.0962526165752378,0.26480258541148,0.17175356907298323,0.889571541310664,0.03974275030416028,-1.1923493875543898,0.49476562370743526,0.5636876121101501,-1.5192920469285922,0.3056506540346067,0.6510729039971322,0.6958013835022303,0.8368668296374695,0
0.4122723897954433,0.9967412508068482,-0.997757356094259,1.547351392965046,-1.8880845912000486,0.8588380647450897,-0.9545023229867613,1.2463838074824864,0.7213870147117911,-0.5507242970269274,-0.2716358097294856,-0.4451104631566735,0.731592610470769,-1.4081191241373952,-0.2347893278984189,0.4835271843925476,-1.9035375256791158,-1.293893053486169,1.206549674625522,-1.8925932066359383,-0.9687746622363675,1.6446617715032874,0.3700163502593525,1.2891296924151898,-0.7885611705594442,-1.4016854753229282,0.09798271650903322,0.4429573448940479,-1.6511051879832284,0.004787378259454676,-0.8340353259821861,0.06591008736274769,1.011719384602767,-0.27582649594172887,1.178032505777333,-0.23462598861101658,0.9046687142668356,0.864497567439172,0.6396620014559105,0.22156939540968384,1.757155174669935,0.21615313753235804,0.7335287195563741,-1.466283679259801,0.7345746599695888,1.0168399595259978,-0.39476049839633626,1.2582207489962334,-0.9852885949982388,-0.9540317627405069,0.3985298386089288,0.34214546226800774,-0.5397521674376173,-1.2292291399300594,1.1764576471686334,-1.5755888459150877,0.4426791625622,-0.8428215527172824,0.26979703224039536,-0.12643535252975907,1.6471913150752888,1.3936051940808838,-0.17169026038858265,1.1665963035266604,-1.8573178314387027,-0.13536194923886502,-0.27175592474890004,-2.045767012751259,-0.448797247016098,1.1614051311918205,0.182568945844423,0.531085825048206,-1.0951640207701965,-0.8997851373752161,-0.12369392224134759,0.3499315752386567,0.608497684743157,0.035160146923652415,-0.5611179393593783,-0.5178678290143441,-0.684825039557003,-0.7370275103166195,-0.8606948161055573,0.5386699751203399,0.05208214915903537,0.5305860489196735,-0.29252886068412415,-0.08511882463654506,-1.8398795048486853,0.7547025638382108,0.38736407278105184,0.12739968560869847,0.9162007841229481,1.7015405850625323,-0.7838187024063676,1.4158206558952413,1.2634032649680305,-0.4137593218759169,-1.0915440741101279,0.2812207314848354,1.131307907748169,-1.2592834937402508,-1.247148595652663,0.5856150009173741,0.1381886158214435,0.8546160409609208,0.2915128143256103,0.36917300885501064,0.1616009895804553,0.039885242009850726,0.6565270995370135,-1.3521431695567736,-0.04569726253624136,-0.44036856150013437,-0.4976120823712938,0.6266512353114556,0.8158757379297643,0.7856147523925686,0.8121916437602674,0.2779622372799137,-1.4285073477037202,-0.2486184568081781,0.44159861721217714,0.14916583426040295,0.8915654505104433,0.306354391443879,0.09836271192846928,-0.7954335756916809,-0.3350678257938265,1.023525097570636,-0.3046629763021132,0.8015646087016965,-1.7553358126787402,-0.827997460636271,-1.6132454194941541,-2.277446010261458,-1.8291677563504045,-0.16447018650310238,1.4537042319035232,-1.602886771545593,0
0.021779654805407594,-0.2258115919511535,0.049733794445025334,-0.22327194864315772,-0.6761007093709963,-2.2422913300760396,0.5680781617989152,1.023590706645404,-0.030506191874234864,0.051712086729697376,-1.3579138976609189,-0.5012922470699273,0.5299871628073421,-1.0132647733894724,-0.11099990327623288,2.1472057395631468,0.21429721309512895,-1.1269925145813966,2.7865703795416024,0.37245424423246976,-0.8217878765298468,-0.10067594533469365,-1.7009157620231203,-0.8205436020229617,0.8728252611962442,-1.2362585197068086,-1.4141085160123448,0.9410736028245573,2.1964379735005446,0.5507301888141617,1.76869264948889,-1.1477569648880361,0.46365382900752544,1.1294912148665606,-0.5088189062189497,-0.9512664805998767,-0.10502212997267701,0.3520324907803841,-0.22710007759277587,0.2084644620430902,-1.2524271795354165,0.2987972055183909,0.7580890154062752,0.2761479781376923,-0.7796238388043133,-1.61295847522285,0.0954226543869371,-0.571699207520467,1.6199611156267895,1.4188156852102178,-1.8671403607646384,-0.2644102638037926,-0.758416261706741,-1.1873073555846319,-0.16916065740063582,-0.7902134055134747,-0.9134090163499963,-1.0175029508556837,1.326885281430954,-0.19824484932330527,-0.06246394745554133,1.2611388048664045,-0.316326799197636,0.31999728168061337,-0.7235791874619789,-0.49652095929799295,0.121987725861942,0.20011141528362714,0.7455222231465962,1.0711038594310232,-0.05339271774194337,1.0802362179088507,-0.8227709988113678,0.7063575581575128,-0.7351297103051292,-0.7004465253661175,1.0312077464065466,-2.2327778973503727,0.6625243005274384,0.1983739557097222,0.16825212974948123,1.6182622607862165,-1.073157386073465,-1.1769172220373725,1.109755053800085,-0.21087641048963413,1.2130802438390087,0.6587300067865435,0.3304518577815196,-0.20826396834887134,-0.2525856333857024,1.9863833039427314,-0.6118906581949355,1.0404062266007585,-0.9227550944471178,-0.8921724883908365,0.18262615824150513,-0.15265059972022862,0.9608526394807138,-0.27749614533870093,-0.518752468923532,-1.2717323669270615,2.3369591022820138,-1.481372531039942,3.1161852928294795,0.6704284202590856,0.4501180887517261,-1.5069012307458414,0.5463459643653051,-1.551945691544368,-0.16484179848902158,1.0986825656626689,-1.4425409241589673,0.654293454359367,-0.3622127542730325,0.5640116224998173,-1.3426698537322106,1.326385634778761,0.6940058237073283,-0.8412174065478493,-0.7771642858781141,1.2701528378399771,-0.42705239843967857,-0.8422152019349026,0.5216155897648963,0.643910612207805,-0.5556010079003878,1.4321271972087566,-0.0017429474156205563,0.9127006933940951,0.9093264850236936,-1.323660452423985,1.1580549064515684,1.0227985903740957,0.3350170737982969,-2.4115414891703817,0.234384968955029,-0.909130972935231,-1.3650047345104295,-0.15683144253537093,0
-2.179844179222105,-0.10388565655507583,1.092359562358827,0.5491614934764107,1.1722063012325596,-0.3179686790043726,0.4531458287312043,-1.0884940543410082,-1.9458267864372925,-1.1111641266547359,-0.7395712909753075,-0.7799255814726348,1.2280311469815297,-0.1514533421454106,2.142544223644028,1.5249489617053513,-1.0087473012267119,1.02615015848979,1.0467257166872113,-0.35965832860491426,0.019828549202609146,-0.6591825869846855,2.3835493169528985,1.6163780929763478,-0.2910055786256556,1.5623713963961579,-0.44515047225420545,0.9509268350745373,0.25595584320301534,-0.08853141362943477,-1.019151264842405,-0.5811379674902507,0.6091367197961062,0.06975595013788753,-0.33263714708192044,1.4551917534963106,0.12935993688842795,0.0015158373577096732,-0.5380658456411958,0.2951983956459557,0.5929897755049843,0.14728661830976897,0.588479305927786,-0.6601513288664752,-1.083437952646259,-0.25849946461981727,0.4259430069366739,1.0327690840572468,2.2356352238168857,0.644800633718827,-2.0296768116171235,1.1719054375321478,0.41635478266286347,-0.6923136706407923,0.8238686290505624,0.4218601728691375,-0.4830728916264635,0.12151501533177837,-0.8954535709174041,-0.19901162958586255,-1.305648537376459,0.42563724414036563,0.37043396067906587,1.1341277345464085,1.0032418369531162,-0.6595296169612794,0.3866233012123128,0.4210920428053784,-0.7996737779258466,0.9071305074970464,-0.3163182117461794,-0.6462824189100896,-0.16815305980286355,-1.6856415412010286,-1.7703443203016966,0.5827669991599304,-0.6626704998290858,-1.2229132737191097,-1.6260723595313564,-1.2708783493018287,-0.7689365600843255,-1.992948055058609,0.6573585529854985,0.41496619325125667,-0.7965238720889977,1.3060193755113636,-0.7127248897876073,-0.038052975047829306,1.3314225028734472,-0.34663546470823725,0.7998935562322489,0.6964989759735419,-0.48715129606873486,-0.27845080274864886,-1.366165663504374,-2.79687769319173,-0.7742661825629169,0.23735665514319823,-1.2209770950601713,0.6137774953854127,-0.44567865905864923,0.9921055344137734,-1.0740185592206233,-0.05799456154047586,-1.2076631305309788,-1.908917103069241,-0.26268163266204636,-1.1995307558720172,-0.05935824008610792,0.4202092635466429,-1.454835717995731,0.830120010333481,-1.2041477774204503,-0.7145630475379906,-0.6657101495575297,0.21528920329035078,0.5670896403707143,0.5208591657019145,-0.6957314425802099,0.5307988631422003,0.8560041402907452,-0.5962964128009798,-1.5617183099777472,-0.341590820832608,1.1421262190010997,1.734330504880824,-2.1346688052054916,0.265436670400506,0.36770620471785526,1.4620730761337792,0.16686573301106272,0.18495497306651973,-0.35502480727144464,-0.9541090830907736,-0.5665783703018694,0.39214598994529715,-1.1719120815906563,1.2076436866301068,0.2651996536691743,-1.5575756299063404,0
0.2670326394508886,-0.5646410560716771,1.659333760516622,-1.5797426028310775,-0.12528150768713633,-0.8408891936935438,0.6981307889163086,0.947704409205829,-1.3716201031735753,0.17070072626211,1.715423127420407,0.8704162348233532,1.5639354686186568,0.36381622207163683,-1.3682816884333977,-1.6175717073516067,-0.5632061745269646,-0.7052159816711294,1.7130260845720093,1.9925415097751202,0.6788645409346706,0.626486763611869,-0.8882821660035594,0.5105244089244408,-1.4247435631883636,-1.1154278628136851,1.5047000965479416,0.303727039591527,0.711550316555132,-2.4617867274727288,-0.4548047009889872,-0.5202106212251334,1.0871855594346174,0.9479186033960295,0.8845102437145714,0.1269332469200771,1.410631208784743,-0.7970540334057366,-0.2869368608547136,1.7480302483646724,0.10057094472145674,1.2878944866094273,-0.45225418761610436,0.1249821100779649,1.05643030612182,1.3306048377974418,-0.08420062568852778,-1.378142229196248,-0.9121647101038409,-0.38721954758097854,0.47465373337157135,-0.7656656151350968,0.46182748676565727,0.29306558192143606,-0.46143454980698134,-1.8840485780731393,0.5017191965397059,-1.691281107624729,0.8459563189867073,2.159562259303955,0.022766599058832222,-0.513088369540175,1.5182311592939366,-0.273009752737637,0.26702629915421766,0.6658162043242548,-0.8029141821113341,1.5179215952315714,1.1364267910251629,2.2438603568082525,0.5797024666366261,-0.3342793528749179,-1.2197110919299279,0.12955797520796303,0.10278542537557533,1.2626731271964906,-0.18775393310890337,-0.7242847777231293,-1.7922802648908824,-0.09933605478295744,-0.7113568076409341,-0.39736102641092225,-0.20317412685716923,0.09579168208937427,-0.910321167129802,-0.6863396522592418,1.450745019000465,-0.2608146520573686,0.7157277620984926,-0.385963881472589,-0.2572854339030663,1.0231117361263353,-0.5307824869330472,0.8716666550909759,0.5917802039323167,-0.386686418193585,-1.14512683536967,0.7785656369849692,-0.6221157293953584,-0.2912542877697059,-0.5412424361673925,-1.7200338904539727,0.01907515628233831,-2.096274424678937,0.6218745235267266,0.6496839051766282,-0.11213485810220891,-1.2329419385605165,0.5462180762847972,-3.705150007941516,-0.011045181711097639,1.2916465853755386,0.3028484117375575,-0.6359752725526787,-1.1954260432228194,2.4732871673375776,-0.4149606695759781,-0.20845806061599065,-0.5216183008651918,-0.9539737385647019,-2.497025117573579,-0.5977506959859652,-0.09737750206054072,-1.0405459244691087,-2.593275463335454,0.24868681289278635,-0.0310073887655294,1.4851477558228294,-0.13589802725706454,-1.9372058614937386,1.2754663945400775,1.3121320566381571,-1.3824267522326528,0.5229954657300186,1.4259073013144072,1.6433689886534648,1.3357604582774938,0.30122303562294656,-0.05662883926494763,-0.6002547109020404,0
-0.6451028447279528,-1.2813362339430816,0.4651753853505695,-0.18309935486793086,-0.414973039382812,-0.14903796284573048,1.1041772122878806,0.698781183257497,-1.9893686520089027,2.441818596069436,1.1258202769187895,-0.49569741257313626,0.0034478459165617216,-0.11071739237815512,-1.0391038886696267,-0.37932673143948886,-1.0070886581791287,0.9200530766678802,-1.660787700786734,-0.6503824570357577,-0.9893835838467162,1.7736999278181627,0.7943451581019104,0.5021608423709818,1.0992005537184972,0.04239922598454386,-0.1508023010098647,-0.1269879207127945,-0.4680944378641333,0.6945757589494407,0.9600867760970212,0.6813596449380596,-0.44515616003212877,-0.5651789297751949,2.237269825137777,-0.36343703360719765,1.4049858259594552,-0.3936045950970905,-0.36813091182709984,0.43370209581979685,1.5297883380117623,0.3869798617657164,-0.5959504364959552,2.404388142608355,0.23328771646513052,-0.23340928629361712,0.6212761595634299,-1.0389417452964518,0.8111633048294621,-1.0427127201601543,0.6601006021391292,1.5939381318510413,-0.8819394344530493,0.12169456287821317,0.3547266654208544,0.9543450034285452,0.5166235755607029,0.08742031262584801,1.3557629075934738,0.22612427205913177,-0.6556171363528552,-1.0970935212485724,1.184899852782076,1.4613574910409661,0.1741600599816282,-1.4733262043794855,-0.5473303286006115,1.3460687979148103,0.5497084401880725,-1.4990083418238276,0.5029394048702518,-0.05083802141786975,0.8860016987293459,-0.43816817826280097,1.3292028305561185,-0.24835607203340668,-2.9591172007833157,-0.6211044945328772,0.25153471547740447,0.13574075887511236,-0.4841751098991682,-1.5570553123969972,1.1522176612148258,1.6309174261761634,-0.9464021264519443,0.8712949842633947,0.6220819329407068,-1.250894254592066,0.3730910953979888,2.846064924824528,-1.3240211420472243,1.3517286247306255,-0.040229536567522775,-0.27891595582145273,1.2721534789750026,-0.623369172859883,0.08957520197535468,-0.13055267658012332,-0.974814409711308,1.240514753566557,0.47436276546134987,2.270662510222433,0.15232847155651694,-0.10827479235546256,-0.33144429825164107,-0.2841337190582148,1.5200772025446616,-0.5637823437901799,0.4566684525053891,-0.3470317164086836,-1.2984559421702453,0.325581285905025,-1.5465558633620031,0.24711895177749663,-0.45553504739375367,-0.3912300318983771,-0.1260155657172406,0.022718787845309854,-0.20501963094168651,0.5246087239532435,0.007078134047382706,2.803920027935993,-1.1011682401817116,-1.1252792751984886,-0.3854435857798393,-0.8644824092168938,1.1994371745910895,1.7491617729364288,-0.4011970820326981,0.5148758114373809,0.409785348155664,-0.455504833317163,0.617706661197351,0.82962709369112,-1.6684570260354077,-1.1802344547125885,-0.2920812962005131,-0.32079347138742165,0.07800249219022887,-0.9189118696774139,0
-1.0399480033711501,-0.3613044981528019,-1.1673638327653333,1.195579749127653,1.0404079227230907,0.6103563240155668,1.0196450123143561,-0.4287407170292683,-0.438675297265796,0.4018367595198479,0.7756224499922845,0.36143248465818534,0.2927432154911115,0.3509241031701592,0.9730065977345508,1.0907244121240651,-0.23377039359766222,0.6267186699338769,-2.1181676401955616,-1.6586454049845614,-0.35099520936817735,-0.6369337852991894,1.7529313678167229,-0.2960616803474472,0.3716167565991125,0.21078702093055504,-1.4055503488879548,0.29002598219594067,0.03317028636966172,1.5649463266408128,-0.5536215802855579,0.6223205799634742,0.5797817872098202,-0.8455492751378787,-2.346434244743224,0.03610629577367827,1.24754016911276,0.3103243080930046,0.914122742697547,-0.6331815408839091,0.7702317717501264,-1.8010190251833966,0.5782866171302078,-1.6588885118996946,0.5974178713274437,-0.5594131953126057,0.8471748515966289,-0.039354276323916096,1.0982987616187183,0.43519058279407424,0.08904201343052905,1.1852126297781391,0.44769471913524417,1.738643937981578,-0.033167079350789226,-0.20993830578910674,-0.8981686820609562,-0.5566412169401557,-0.2385373387235512,-0.690923807942074,0.6387990794037915,-1.256008983183498,-0.8661930633619248,-2.132742731358247,-0.6903318841628555,1.2174116759974976,-0.5148947536647098,-0.8393081749486203,-0.7457034405625816,0.3503801148911787,1.27755917511993,0.8739987899243882,-1.3234606812569325,1.3938111837469027,1.0173969451522622,0.47163140333603876,-1.1322495569854512,-0.9036278981959392,-0.7671473609161006,-0.5360215606777086,0.19244136816572122,-2.728557722128255,-1.2831185866245673,-0.22985558479771012,0.98548641341099,-0.30633482653481875,0.1870549067816541,1.0987887938224268,-0.7967442119539481,-1.0089249636512876,-1.1053728093537427,-0.2776813565355509,-0.6515805618972584,1.661358842719274,0.24328195331862498,0.673984319396128,-0.8545710677077628,-0.04916832783197539,-0.3072564527929439,0.19105098907179668,0.3819335954083719,-0.35381308253895455,-0.20835746380349965,1.12870672551403,-0.916560390708187,0.7203810433578565,0.2906827210536952,0.7487258239765869,-0.31219155967758777,1.03315186291749,-0.6373653247456337,0.5009090617985801,0.4976015817270766,0.15643608744790363,1.0260946417770573,1.1048742629419421,0.6839115331235286,1.776038418690314,-0.40062194935611617,-0.26737683713601157,0.2857503628203295,-0.17532210238113222,-0.36460872370032543,-1.4658009889158217,0.7784545868320556,-0.10840204507913363,-0.056774957099696204,-1.0180216942359055,-0.3912574175672374,0.23679091393894214,-1.2050415030037014,-0.16784428812350896,-0.4347427948920216,-0.10350986303083215,-0.17992717510142822,-1.3460416175464245,0.8486419977890405,-2.464767656611346,0.21409648757668967,1.0398813123841466,0
-0.08403674439431538,-1.3780285039549804,0.7889639834991293,-1.6134979904393374,-0.3368337369605116,1.1376180681678723,-0.11113664450677577,0.02094708886162621,1.231733978156814,-1.5192404726996578,0.04894282899570264,0.006186110905852348,-0.7706926295719022,-0.6227062448480631,1.0031014003981513,-1.8584830502331504,-0.1847943172701447,-0.7043830516514936,0.19171663994390925,-0.5276573247456379,0.17426937877278767,-0.0577294014423511,0.034799858116858304,-0.10640548747800203,0.09546456566957218,0.20625798106819893,0.06363720254174739,-0.1900398302830403,1.009623874303876,-0.9300413839342813,2.1653974293214615,-0.8764991745813827,-0.4827966566086659,-1.826275494254038,-0.3028063866187931,0.8810005937811165,-0.9608982320421274,1.3661382073301214,-0.17530403884106105,-1.412510896623995,-0.8339538281790521,0.46960518558549985,-0.5327144278223929,1.6089647863092882,-0.6939063010386459,-0.11194333286682992,-0.6345724242534602,0.9180888829666167,-1.49382904632572,-2.0617964936264994,-0.5383757481074319,-0.2163894755458876,-1.6945732028338947,0.42928436811333825,0.7075106138105288,-0.35364460335888276,-0.6818564639396227,1.462400414110487,-1.1127498435515735,0.5310799991698826,-0.477747966273539,0.18292102415081135,0.7888227986641592,0.3195244818094351,-1.8110535827908811,0.9135362595832709,-1.917924819102586,0.6630473797292921,0.4515159130405127,-0.28455255923109396,0.4630041239800663,-1.114253664185325,-1.3339238830067486,0.5526000307407076,-0.3336700563316928,1.4934902313388267,-0.36266050399639255,-1.02301018873971,2.641475300208582,-1.4238457403352052,0.14998028252877085,0.10745082452615527,0.7135551161862077,-0.33705281303158824,-0.27358621167305364,-0.14920940429993773,1.800708074299378,0.8654661027713167,-0.8534933358390434,-0.5285113891423064,-0.131249676496671,-0.895717585929919,-1.6070573120696316,-0.6806770903234461,-0.9111526463118539,1.5763941414376867,0.08436599390639714,-1.4991879818680662,-0.30819343758467715,0.4385906024132625,0.7323625197510302,0.1985320082739074,0.5276449775344255,-0.1399463703602806,-0.13748308920017008,3.293343160775697,-0.6017544561182484,-1.259200606076619,-0.43781611229825873,-0.10857317052664119,-1.5663443636069234,0.5014107350834343,-0.609776702376401,-2.3130578503946766,-0.020645030322385204,-0.8122130100356842,1.0140979098595042,-1.0103072651172829,-0.5412789534391684,0.3449584157144166,-0.3690708313065841,-0.9446545563206415,-0.9476163024279496,1.2000973261463765,-0.5347036179433865,-1.2019852942936615,-0.2519378567795479,-0.14594280912339527,0.5746090955473202,-1.2841946870348062,1.69942465809087,-0.5416490300139862,1.7269440873702242,0.20299035425799053,0.5672429543902697,0.826239516532551,-0.414398871095459,-1.3565378578321745,0.7172828664975985,2.16964892345641,0
0.010715739930316106,0.056694338939703916,0.3331463966962575,-1.4602202032050966,1.176541527288898,-1.2415832928248085,1.4956701633414533,0.26122999040268446,1.2797411594273402,-1.7843737678313007,0.878742004639926,0.18893711674688593,-0.24997502229690757,1.146644690974481,0.7778331241589148,0.17778440567263923,-2.1648891876423986,-0.3205732860558113,0.906264985400667,-0.6262904141672956,0.30363592242133775,0.651074751966557,1.2579827122906286,0.2218997579212023,-0.9216106128070053,1.237373236432013,-0.24053406347142361,0.5149751350216693,-0.6394777679683716,-1.2991584778157077,-1.24917470997425,1.4212165229701748,-0.03969694329774252,0.7267731344364131,2.062176500985919,0.9361403966770083,1.8991859778808438,-1.0519049202466786,0.004481224042920925,-0.8887578143123775,-1.0670593889722735,-0.6080362202627496,-0.7466822105939676,-0.5869643235002969,0.08763013022324409,0.32323491445111296,0.9751283774295181,0.5650555848336462,1.9547430861376842,2.1127347280527604,-0.4934439847236483,0.2534270013408355,0.020316252295511435,-1.0182642341937724,0.916788771088327,0.8259816204219652,0.7042296491567086,0.9380726721917448,-0.62219766142672,1.3115402657124213,1.2608152194309061,-2.1494194162330094,-0.43527724164218484,0.4995171207977404,2.86732702254613,0.26365167663545064,0.3397821539470358,-0.25308403885673325,-0.07669495998524394,1.5420635957049793,0.11182520524910972,1.4953014733678391,-0.21202128755990907,0.41653283716559236,-1.8035124371611568,-0.5722063524196302,-0.3028084264885882,-0.04389168683758555,-0.10538183631211398,-0.15033980287452958,1.25670258882223,-0.4488680670772071,0.6534260635104354,0.04539376683215822,-0.3084785151081666,2.143760034685117,0.624135759290859,-0.11827844003807585,0.6271928956664865,0.5882724600111631,-0.08952903091121113,-0.9783244431108721,-0.3797261297776131,-3.0876715899045992,-0.6217889652615903,0.6588877244852279,0.2974308617893709,-0.2664038887186441,0.4796112079708499,0.9661827744016097,0.12981574936391752,-0.2580659751185405,-0.2329385078623212,-0.8855759289983643,0.8106532060909722,2.078066550109493,-1.261254539455915,-0.5412209408908838,0.3104192764836151,-0.3052129989117391,0.6287159411676272,-0.8631776929796835,-2.0646476032470242,0.9408177849973753,0.7695732710984335,0.8575060998227562,1.9628568481537332,-0.47851688934530445,1.8547410588192261,1.521305682873424,-0.29509371611347796,-1.1643772028255694,-0.9792981102298384,0.6840211205691495,-1.052234553290452,0.23176447019813187,-0.2169905544910586,0.2599819391027796,0.9168947647220603,0.4060943504257965,0.8702587477311629,1.922308800212196,-1.9160430207790815,0.27761414506079485,-0.0431393886957868,0.011285231572541743,-2.0505365587348843,0.2167163123834915,-0.5052995027003723,0.7041806308523587,0
2.5688884300107406,-1.1003941419220473,0.36467878375715973,-1.7892203078331623,0.14805617775931834,0.949575905200766,0.48379052295957004,1.3630575447165523,0.6694620951785664,-1.7464760468029978,1.8795275220550463,-1.4814104269548458,1.8482914773393042,0.6791038033142097,0.36522888974870343,1.7237940620008587,0.5832763867476201,0.9753102262058156,0.19406256218665602,-0.6258885900827004,-1.0434314814634649,2.108621663036451,1.5251988344940917,-0.125094187989107,-0.6197548225208539,1.6069396037380475,0.9477482164273919,1.0824831294965571,1.3254194218523714,1.2050788637040233,1.96278419703634,0.8505978420636257,-1.3188399699143691,-0.33499368289978015,0.5050636143565046,0.33748436348637295,0.8102842046088096,0.04350570875488562,-1.4488758742700305,0.29821256265384194,-1.8014895628941971,-1.7011325595632363,0.5329788295995318,-0.9252607569263226,-0.4237018185201067,0.4982049810222861,-0.549039662539572,0.4152093127193428,1.1993063549659178,-0.8407263370970982,-0.557104964512762,0.6354312683274721,-0.4352324452657807,0.6292305992699427,0.515058005652921,-0.3290521672811889,1.327965871520824,-1.1993957862188669,0.6110478248718204,-2.115260647380177,0.09356002210650403,0.06054084925636382,-1.2051704284832017,1.5343044698129111,-1.0961519044342292,-0.33761649052718606,1.1804361502130054,0.22583561422480872,-0.3869589791985231,-0.5988473057114236,0.021130718675963087,-0.38947690625465453,0.11585640948383075,-0.6467028257122741,0.8867419503753273,-0.632004915681166,-1.4907791301570283,2.817226184050895,1.0017563471364266,-0.6729641241229221,-0.8842935834469303,0.6873692335243426,-0.6459327265350981,1.0391588065090938,0.5188473220972386,0.2902724925810502,0.18961190147359624,1.4612907502526324,-0.20035522206952572,0.1409672719313953,-0.7568819240997456,0.605037277187763,-0.8635659806598925,1.2210863066010165,1.3183268542110818,-1.6614875917344754,1.0262986620481842,-1.2419555765710069,-0.4320455561054304,-0.022487506662331225,-0.4511677505224904,-0.35617346727795324,0.8097348443526761,1.070384276405027,-0.11419019190404725,-0.0025557596971608576,0.6311855331833436,-1.0527498646906683,0.03798304260205169,-0.223546686380508,0.28214398653943534,-1.1664306692483328,0.3649011679277977,0.2836479636345491,1.979485735961659,-1.2934540594458408,2.314807921341104,1.923608274714526,1.283318119225225,-0.505078994213852,0.9841103180719531,-1.7269630829880451,-2.0368467898974134,-0.5762693542072689,-0.9724282611862384,-1.9649094019962667,1.6201791079343835,-0.7156109036380214,0.46518921661322854,2.813867204964309,-0.11213092639644937,-1.2851071028708598,1.8667270380272938,-0.1467032288415572,0.8487023934086521,-2.720241872789723,0.29684149554649625,-0.061543901996753816,-0.36711961012386835,0.9682492999618478,0
-0.6736341186328448,-0.27848235983440034,0.10427340475764019,0.866995669873976,-0.24786177083427258,-0.15740000735698914,-0.16562851585256322,-0.17133353820030472,-1.3177512560575,0.758212292656862,0.8260546561713322,-1.6253161257916315,-0.45211251873715624,1.3227929812906134,0.10606948992904894,-0.3209082936621061,-1.1146540527884932,1.2585558031361193,-0.7012584064402924,0.6868741293561476,1.921222465686917,0.12327494753182731,1.4223034535969021,0.4670670137205015,1.0102796649855705,-0.2507962489307257,-0.8798432538459516,-0.4620344272904931,-0.35480044140338685,0.26935740839771727,0.7131264338695278,-1.5500895213846537,0.16107490003389124,0.31555536282303626,0.05242307602953042,-1.043444786335557,0.4126783572695191,0.37399730732121717,0.8270799177999638,-0.22043660375849625,0.30174284451772204,0.5625146082699177,0.047493023897255036,-1.3365067828626669,-2.266612257126321,-0.8118804343047674,-1.7054289175629773,0.2523459657621126,-1.0208788928077175,-0.655536847738706,1.7712746856813426,-0.3944242121207872,1.1869233198288671,0.039361952457134086,-1.4373431760074575,-0.04136216326370499,-2.3183584985829064,0.22006951036421196,-0.9349048089762019,-0.019240332291974468,-0.6557663532186927,1.1841701578073711,0.04300300418088501,-0.31371479127001944,-0.4934481662737152,0.2122439063050763,-0.37666785507455697,-2.313137245720845,-0.5442796311556167,0.003185382035743389,-0.754700617284149,0.24686764864864144,0.10745019538613013,-2.194088501048766,-0.7101609614196978,1.3227446576767596,0.5349712229459637,0.6293193513324328,0.9742334491426363,-0.24507029713938133,-0.5626208848203771,0.8449286236222812,1.1142435669671573,1.2344848304929457,-0.6387388182731633,0.6569828229403829,-0.11492222223946058,0.7067318972131795,-0.09164195041727632,-0.026221152138502183,0.7986050076051183,-0.3289809701680027,-0.3730814207739803,1.061733139868511,0.4111083648448982,-0.9857759625094384,1.161783102965066,1.4578842044481415,0.2972920625495982,-0.320205262269162,1.612789736254371,1.5464964969113044,-0.8851690905831726,-0.26402664948161353,-0.05393345485301814,1.640468718119838,0.8917749790965911,-0.32212204602942823,-0.004697989227809222,-0.10878479868187421,-0.7623315409296647,0.5195191251774381,0.45335183002026436,0.5920983989659515,0.22307151026161723,-1.0858265822053912,-0.6348214222142683,0.06346256904517085,0.8996658008031805,0.28146533631589976,-1.2304611159867622,-2.0224715061906737,-0.037745684498509145,0.4096454363523408,0.7919064647206995,1.7527727965923474,1.1237290287137258,0.6165827363632107,-0.5379326978344163,1.44343821602332,-1.0829878060460558,1.0950030416356418,1.8846732238964359,1.3998588119050024,-0.38913774146704827,-1.6445153716513057,-0.7487042871064378,0.04594372708288204,-0.27888389148647125,0.24104135568639123,1
-1.812870793222275,0.7937036122010053,-0.622856988335108,-0.0008232073195094437,-0.4777002078945702,0.749278290414367,-0.5663491351662785,-1.713954445506709,0.5602065416139476,-1.5912583718067665,-0.1745563481543893,1.089740417772641,0.5751074196530057,0.028197702780679023,0.06851701997344523,-1.0500689624052943,0.4094315252932212,0.49326307223477744,0.21153255984719788,0.009932459560120746,-0.14275043203725774,0.7906412681724276,-0.6136759477378767,-1.3424403402014518,0.9047971789696142,-1.3200320240837609,-0.7415101516951653,0.42447578022511545,0.3321044517097425,-0.1624407174769536,1.4076304196508973,0.9752539284963933,-0.10635931867834886,-0.5616967093095784,0.26591090020069363,0.18864523938147504,1.1876140562966424,-0.1978746584898454,1.025852659674338,-1.332247689886578,0.35178075027624367,-0.7086676661361613,0.006159075645352578,-0.21954234131002232,-1.110091540741343,-0.7350725260878732,-0.4630456728866889,1.7451248394105263,-0.5336006478803373,-1.8962510125554792,-0.7406130231191863,-1.76252849810202,-1.04422094736679,-2.4375341158993913,-0.6214737753144493,0.37322482590696693,-0.41300503165672636,-0.3598821234026842,2.552787653418942,-0.6024896948381385,0.2184987507424299,0.10575250473363941,0.254017049176203,-0.6083731253320827,0.7663893229008962,1.187702847276377,0.06641769749326955,1.1657460689924897,0.540158365831218,0.16750767746793996,-1.03556399912113,-0.12327663010145554,0.9953221759115431,-0.3872827632953087,0.07869464085663509,-1.0757341876265554,0.3715238589566125,0.46363391666244874,2.343774145676857,0.2329028458095619,0.3019138894434709,-0.15354949358593584,-0.08642821635840907,-0.3014065580151853,1.359465873859479,-0.5156967707583077,1.1487257778970017,-0.08691138796416413,-0.8368736495656549,-0.5600362115979929,-0.6908445823621011,-0.534430991005625,-1.207547979789523,-0.7468513693545714,-2.4792784641435244,0.1058241619048937,-0.5599920820806227,-0.22127992480136288,-0.8235846404256869,1.358805299208732,-1.8828340039231233,0.9351009558063096,-1.5714068234668026,-0.7430535323984059,0.3652273689904811,1.9499377347598272,0.7789478687193871,-2.5818301266047823,0.3477170155715532,-0.8082142034421786,2.39790698924859,0.3105447933357011,0.9529848300384488,-0.8721121531740234,-0.9335276704003446,-0.04962673913510901,-0.7514886397105406,0.3289011011955465,-0.4474866116119343,-0.02710684317025044,0.9682507540878327,0.03141961985440047,-0.26789823762517295,-0.7090468913642785,-0.5262605925932121,0.7070920006866364,-0.13831295131344995,-0.9584190988317086,-0.3985683309545431,0.8300265432425096,-0.3197833138005078,-2.5697271861076527,0.9050060153398121,-0.24527037101676744,0.7942923872388157,-0.4087437099878554,0.47927717309402074,0.5722687676815199,-0.7375714399005452,-1.3322056750021094,0
-1.1449901275795495,0.20333070777267934,-0.1520885964048495,-0.01979404722801775,0.4269784469232162,-0.324043616841003,-0.45334315887061577,-0.8245578816606387,0.3740628862323628,1.6996227432932365,-0.502593635582607,0.4468776633695273,1.320152088518569,-0.6761411619285649,1.7550110196691695,-0.9313092582074338,0.5545122715935705,-1.1107918760469218,0.5256132566999666,-0.6562248452945985,-2.3055040043231445,1.3948644363719387,0.20689125877771575,-0.5383220897582448,-0.23390005580530768,-0.1916651452793111,-0.35705414496126525,-0.38948540610380916,-0.13923542223029162,1.9886972883294338,-2.279472607693794,-2.0133189154280595,0.4488999302781738,-2.583781358030712,-0.5003432537079624,-0.7846339860678706,-0.038838825731967286,-0.6264135260812762,-0.14817495291815588,-0.7796811152671514,-1.2575740798796191,-0.26607722387835353,0.5109045731036894,0.6300459118710245,0.18032720142745445,1.2751798734102573,0.0857641569381395,0.8226983572895004,-0.2640290988862532,0.4571624585474806,1.9592453988752325,0.17781074513629164,1.1972420810392952,0.010054059802311336,-1.25410298207742,0.15812486640983867,0.53433294334724,0.8492652843174369,-0.6813135538755191,3.7661800763391753,1.079746214560553,1.2565735365863666,0.8796151117556075,-0.8405812403190974,-0.41850925194598504,0.5627393682359908,-1.8452455894675155,-0.47462103407042494,-0.5042755063836188,0.6062035769068241,-0.9933084602492708,2.0105981573422556,3.225312119312865,0.4332178307513906,1.2439862993159316,0.4963492832580708,-0.540465718092561,-0.9376750301782503,0.34276700968532275,-0.6747227714755186,1.0134142771651822,-0.6431477591966025,0.22050733802466677,-0.8573336796303919,-0.9254755127384154,1.4442042003871791,-0.4613247287705653,-0.40589593163070986,-0.6465565353546592,-0.5024839165437696,-0.10714632363229869,-2.024184311106057,0.8131064630017601,0.3944936116489652,0.8770848097017298,1.2950626834947094,0.14594295880998145,0.10377783922436097,0.5968636622791427,-1.3162405560618977,-0.3581781696695252,0.9789280726169752,0.8637311274783138,2.1990378111203435,-0.07634658581572513,1.2166692986018786,-0.058986287171472335,-1.100486089825039,0.17674364968372888,-0.21928128874501865,-0.4211550190018913,-1.0743540264161606,-0.25865407896176185,-0.8393680811699856,1.9843854886166838,0.9070729689771364,-1.1684986771669172,-0.5968637979043557,-0.3949752838077412,-0.20832879807716512,-0.8376402743205741,-0.11064568192615307,1.0150720571045713,-0.36893597852985743,-1.1919604820251588,-2.017090848172151,-1.9597380562607913,0.2845872984630427,0.12655905365681772,-0.20216276483078943,-0.581978874985434,-0.424732741091756,0.25918959028181693,-0.5932408214155648,0.04891477254294297,-0.25281006114713833,0.09844355025467356,-2.181729581654693,0.8097032183374514,0.2780357992201174,1
-0.47452411315154164,-0.3161751698251644,0.5271487834851162,-0.12908688324807202,0.6052987018849675,0.11319869859064904,0.9304447847308969,-0.9657396750965658,0.12657408132392775,-1.7809258729469641,-0.9650728276854292,-1.354044903872533,-0.15846810330718406,-0.3367798391030649,-0.6110098131795536,-1.336158417098559,-1.6679691133015082,-1.1373260313151075,0.8712027495027169,0.028689219123004532,-0.9276494934222275,-0.0975366856674878,0.2583784124582963,0.10307854623229638,-0.5426464534917015,-0.5392748215006344,-0.4698675654929136,1.2086692281617555,0.592469680742305,1.2896582979331086,0.11657633632464866,-0.9875473620786311,1.2947847880979537,-0.32976733888703624,-1.1139721583290774,-0.9666793150569084,0.6895076709956869,0.13776326231143432,-0.7267715839696701,-0.7344103941688529,2.7010850226766703,0.44828926999542296,-0.18247022279280584,0.4505621660761816,-1.9036218529069941,-0.9619682431520256,-0.8131567248358088,1.3176776128475902,-1.980071212777133,-0.9461920243785296,0.04099002384853284,-0.4608279278333148,-0.9814599126553809,-0.2801742345449635,1.6248851731380782,0.8637576497787368,-1.6548967373290562,0.07764981240893228,-1.7675164632296496,0.26909806465871317,0.9199158985218445,-1.3696231200448648,0.3762032341075658,1.5156846399026693,-2.184077447458856,0.10005516263638958,0.14436313169970624,-0.10678893488049991,-1.056261443358212,0.29361411186202185,-0.4032000057071776,0.24402012663344155,-0.7206554025487156,0.03227751074964992,2.6529316674758787,-1.5456813300546401,-2.8986750668321877,0.13186493008562675,-0.3237231431944824,-0.2029633501372661,-1.0402327227518573,0.3805817275108532,1.4248240622610648,-0.7204906516077794,0.969304772345483,0.2769284195596194,0.414958511924074,0.17071204633276715,-0.4487061838187261,0.6667332199452713,-0.5586694140947173,0.9793030916535823,1.1380119570419256,-0.20116651914775993,-1.0618019559417862,-0.02077059719186784,1.118022794199395,-0.4993313659461698,0.13096129299881787,-0.23561458310091205,-0.38662026049783343,1.650698070338802,0.9192959056435789,-0.7902258861375601,-2.031897342321516,0.46561654129230096,-0.8456617244508817,0.24827698011022073,-0.23028194815444647,1.2755376871285118,-0.16658498533534327,0.21441410850129,2.185641402773198,1.1785541997001756,-1.778166340953126,-0.28375342096169803,-0.5461298849529718,0.577781254179319,-0.5662201554143759,-1.544970259110096,0.10770885282571324,0.9561196720651,-0.15097947075245677,-0.22063591126433119,-0.09047420665569239,-0.7622380738509373,-0.23072412590083763,-0.2978154561283133,0.6019409694877182,1.1901406856210348,0.7440204473555151,-0.42788046620776765,-1.8667517307008439,-0.22890886499518828,0.6397942525040475,0.9724645475966658,-0.23555062514691918,-0.5804885248949396,-1.2055857953866387,0.8147036844294885,0
-1.5288506186362698,0.8898081894354698,-0.5808077657594567,-1.167931445104132,1.3940768554536833,-1.2429632348540351,-1.4373521501567186,1.9757595958192222,0.5946122052457181,0.40471479767601776,0.22426304324149102,-0.6801124830699373,-0.5024186212851663,1.7340313231292468,-0.09100027346667634,-0.6604775713391738,1.3374169713879644,-0.7464241362085703,0.46930358797349264,1.3820519481264406,-0.18332473520793313,-2.18021607767115,0.8827320487542804,1.2783981982941013,0.020988211526036547,-0.218398200670727,-0.01701872413741873,0.09228833593997807,-0.3452037609985173,1.7591737581895233,0.2009213408396583,0.019132880479326514,0.7796137826253239,-0.41941226489740496,-0.2437718519183348,0.5011686540873674,-0.03881100103830309,0.7512747499834259,-0.3103093840993485,0.4164948734602372,0.8070456318911275,1.0193603149657566,-1.98241628056087,0.30059370361580584,0.8447252688713918,-0.9630436494178934,1.0764221120673074,0.21045465260036694,-0.4324652733015048,0.42744615130404245,0.8233812006349431,-2.1539108564536793,1.6192428974973074,-1.949067364963053,-1.1039629240454027,1.42599633487571,0.9243617196157948,-0.4506428666656104,1.0289946566744674,0.34262339046975815,0.23494096920732502,-2.887696889663575,-1.029317874259448,-0.3673203951876603,-2.354189269173179,0.7746084591218407,-0.05918016020579842,1.3200562886026685,-0.5144982414294801,-1.4112027570868373,-0.9892203368164465,0.3061629929551661,1.103827839683427,0.025454445822252324,0.9918462974947293,-0.007790730409864934,0.6310955183895389,1.7190206700863047,0.5469170179073201,-0.7322366126880371,0.2657268163986676,0.10118176194533507,-0.36015881099528213,-0.7981434015165346,2.2325174727098362,-0.2636103301380227,-2.339872224676797,-0.6352828893831447,-0.7692360659053196,-0.24822684647072737,-1.4985267105003046,-0.5483433266528842,0.2515299285687026,-1.3395561126960411,1.1727820578897399,0.04259848613825687,0.17058827188966824,-0.3995019331427646,0.22309530784741424,0.7671733014663877,0.23864965842798994,1.1322594593883868,0.14059895446696546,0.8377888060452175,0.4251547972110425,-2.083785026358967,-0.8823003065721866,-0.8254382321635886,-0.7993966996740731,-1.0776107654132219,1.1316716533358382,1.5132331988235121,-1.6414430709647645,0.7915172425175121,0.5966989140151072,2.223800121998364,-0.07726149263514309,-1.5462147250396827,-1.550329669690434,1.1175352323753116,-0.8490029629177879,0.7200965812355021,-0.027462619879636767,0.8879719095027462,-1.5481245515680444,0.06820036242470008,0.7876461638238952,0.690931272699096,0.962812038041748,-1.6818707967569702,-0.11563780246537173,-0.02757401658600988,1.4668974934371142,2.744845703745474,1.4375028660589655,0.8962471528597202,0.4478899134204837,0.032869646128797475,1.2639815494396944,0.2004651975090577,0
-0.4731041005514859,-0.06172448700340763,-0.6975320945441638,-1.8582927636534117,-1.7113720341484162,0.0433356483854707,-2.04860381499921,-1.155049563980237,0.4680610971234949,-0.7500591373095177,-1.2303976162791417,-1.1165766701939923,1.1939098192681645,0.8276524786618822,-0.8340691807099924,0.4913156927917184,0.10582510968965765,0.8218964653988261,1.277963469162076,-1.726166706506341,0.4205766736560086,0.03799867511801078,1.0961883788096665,-1.719259316852306,-1.2843144834631308,0.09566603888444655,-0.2750630352426314,0.35205801994537644,-1.6403103134329353,1.19412934497971,0.18150499395664443,0.18077280969131465,-0.14725272448122248,-1.1488184008015567,-0.7767498419821393,1.6404391422633247,0.07499749879994913,0.008254099372690244,0.8539769744284553,-0.7878944307694271,0.42996504973805877,0.15279463250748915,-0.2821484989471006,-0.4863584143649399,0.6631168852480056,0.5547513019131569,-0.7583544185369089,0.4704836905795404,-1.1244376390062136,-0.6925112157530584,0.3792256371825526,0.25519820738198656,-1.0809422500529027,0.3547891381554272,-0.1849555496138045,1.0620560278826994,0.4198690918356399,-1.1336772747298371,0.18300839232540259,-0.7677997902269246,0.07713709746550972,0.3888405778589109,0.49004678440748234,-0.9593530392386873,-0.6099963303734368,0.04576994747665657,-0.43991696781321676,-0.41959558407741737,-1.0689407135674047,0.37472630626542536,-0.6508188131361072,-0.32481334128126327,0.04125278741649753,-2.50670422545741,-1.6003594991017691,1.5868358870405328,-1.5577837466507438,0.9202520822632343,0.8873612272088235,-0.018237508155435588,1.4917960913888841,0.8219264103383139,0.1971585126160105,0.3890426439486632,0.9535721778396165,0.397195100356966,0.8529436861833072,1.6088376856914774,1.2547875449705137,-0.31089760323787896,-0.8521687133648997,0.047260069282236465,2.075344352573416,-1.1775676311601502,-0.21397805019462388,-0.13522488366522703,-0.8483137945929464,0.11916471566231716,-0.5724877689086495,-0.05205051986578256,-0.16782037668726701,0.033478937970421216,-0.9628404337205961,-0.5083081659444799,-0.15822725377074703,-0.03407086012494154,0.007983999859770372,0.5912718968887768,-1.097812319598534,-0.2672022144532564,-0.9292499828381768,-1.0322626051193955,0.349345010972897,0.08032735299855846,-0.5421607790596843,-0.5927319834243756,-1.308727039490382,1.0517289062036153,-0.13734575979417582,-1.6170964077501264,0.06985338751362453,-0.7615195288796365,-0.603913859768206,0.9882476030249175,-0.24010835214939716,1.6618084562004234,3.0025349527301524,1.3738346191422146,-1.0579807963688408,1.4049424276957154,-0.5734219790004457,0.49938932778159784,1.3827319660674606,-1.1207494909760953,0.12103285664308414,0.11750063741171768,-0.8715949839594858,-1.8140508202512267,0.7166348944433409,-1.4145789148705754,0
0.6511198278238115,-0.1916424621607314,1.339815541542661,-1.1308062069306266,-0.0755007509277127,2.095270771186083,-0.7091769388818869,1.639359999887874,-0.7837524702047606,0.16061154461590127,-0.8527915082144132,0.5198047852994715,-1.2630715848659535,-0.5370232697150134,-0.5063770506073457,-0.7136618688773686,1.4692143178480879,-0.7709786142935307,0.12219973049703917,1.8565201624401493,0.24945216657455385,-2.485739633951203,2.027999502477753,1.115879165598215,1.288425482466699,1.3445747368571048,-0.09469831386994691,-1.4717592591151525,0.9862127879619467,-1.703314482751743,-1.430075644930736,-0.00784712943515895,1.0374809672753893,-0.6799572299058396,-0.6081060142269458,2.553294388116672,0.9286959555305042,0.44911294418553893,1.4812476870137588,0.6048015170966646,-1.1184690582158037,-1.205259047938194,-0.15095390922231006,-0.2810498969981604,2.106710825499294,-0.11440327147420297,1.7483670778558218,0.37889339468160066,0.8287880582825721,-2.9467267558564307,2.3685415114248594,-0.7552905780996141,1.1119406461888033,-1.5791131925657849,1.660648725697865,-1.5635584985584323,-0.9850340653140738,-0.45939489718327403,-0.3885444047239805,-0.33368389285410244,0.37654826583935525,-1.0748245769072682,0.32709848759475074,1.71688172547246,-1.0681196835379683,-0.10669653420351333,0.8488404050363294,-1.7148703229614712,-1.295750613815645,0.5357841939034379,-0.34168756253647053,0.21938203251487967,0.41430262152017033,-1.6721464405377526,1.7423155925373386,-0.10577995122523984,-0.06978951949130459,-0.19083501635916353,0.5541454673430725,0.7551923941706179,-2.922663365140458,0.8021015707022405,-1.270715605560661,-0.5313932579787827,-1.078773818075765,-0.5585450493961623,-0.3608490387646265,-0.22961345557863216,-1.6670725259826555,0.006216503916135293,0.45858098730058156,-0.09533095429241664,-0.5811809241134361,-0.9490913739702642,-2.7014580265839396,0.4920904902055368,0.2586440842775277,-0.4239397547217274,-1.686299325661843,-0.20700519082888896,-0.5808011767058179,1.3338678445888663,1.1175180890617753,-0.8024675007958415,0.7313802813626858,-1.1168075588659343,1.268036935728487,0.18134274739161135,2.0766074173830242,-0.7037631998655326,1.2451644574889456,1.4626432988315383,-0.467853400685183,-1.3732600705169924,0.7501488836514957,-0.9940335769520194,-0.3542089114097662,-0.8193223082720047,1.9014938889736273,0.0468335900495961,0.3435147478410022,-0.002737950752155404,-0.77015182076127,0.5915219082783958,0.9212285903408998,-0.6271580899691402,0.08626885525084099,1.0468222394761884,-1.178762187201011,-0.16778302670903383,0.8208057403176613,-1.0218493652712055,0.12598514481910503,-0.53901281303971,-0.7110323854606021,-0.6992931490329776,-1.3429357334303398,-2.2263715688972474,-0.9606624886127499,0.4087207365099458,1
